616.7396851,2.68627453
616.7437744,2.60784316
616.7478638,2.62745094
616.7478638,2.78431368
616.7521362,2.88235283
616.7560425,2.88235283
616.7601318,2.86274505
616.7601318,2.58823538
616.7644653,2.58823538
616.7684326,2.64705873
616.7684326,2.70588231
616.772583,2.70588231
616.7764893,2.60784316
616.7806397,2.37254906
616.7806397,2.29411769
616.7848511,2.2352941
616.7888184,2.2352941
616.7929077,2.25490189
616.7929077,2.25490189
616.7969971,2.27450991
616.8012085,2.15686274
616.8052368,2.13725495
616.8052368,2.13725495
616.8092041,2.19607854
616.8135986,2.25490189
616.8135986,2.2352941
616.8175659,2.19607854
616.8217163,2.13725495
616.8258057,2.21568632
616.8258057,2.2352941
616.829834,2.47058821
616.8338623,2.60784316
616.8380127,2.78431368
616.8380127,3
616.842041,3.05882359
616.8461304,2.98039222
616.8502808,2.74509811
616.8544312,2.68627453
616.8585205,2.66666675
616.8585205,2.64705873
616.8624878,2.68627453
616.8666382,2.60784316
616.8707275,2.58823538
616.8707275,2.50980401
616.874939,2.50980401
616.8789063,2.54901958
616.8829956,2.45098042
616.8829956,2.47058821
616.887207,2.52941179
616.8912354,2.58823538
616.8954468,2.64705873
616.8994751,2.62745094
616.9036255,2.62745094
616.9036255,2.56862736
616.9076538,2.50980401
616.9117432,2.47058821
616.9158936,2.27450991
616.9158936,1.96078432
616.9199829,1.43137252
616.9240112,0.92156863
616.9281616,0.23529412
616.9281616,0
616.932251,0
616.9362793,0
616.9362793,0
616.9404907,0
616.9445801,0.01960784
616.9489136,0.19607843
616.9489136,0.68627453
616.9526367,1.29411769
616.9568481,1.88235295
616.9608765,2.35294127
616.9608765,2.78431368
616.9650269,3.0392158
616.9692993,3.31372547
616.9731445,3.64705873
616.9772949,3.56862736
616.9813843,3.50980401
616.9813843,3.43137264
616.9855347,3.29411769
616.989502,3.2352941
616.9936523,3.21568632
616.9936523,3.13725495
616.9977417,3.15686274
617.0019531,3.11764717
617.0061646,3.11764717
617.0061646,3.19607854
617.0100098,3.21568632
617.0140991,3.35294127
617.0183106,3.54901958
617.0223999,3.47058821
617.0265503,3.19607854
617.0265503,2.9607842
617.0305786,2.82352948
617.0346069,2.74509811
617.0388184,2.64705873
617.0388184,2.58823538
617.0427856,2.49019599
617.046875,2.45098042
617.0510254,2.41176462
617.0510254,2.41176462
617.0551758,2.43137264
617.0592651,2.39215684
617.0592651,2.35294127
617.0632935,2.33333325
617.0674439,2.35294127
617.0715332,2.31372547
617.0715332,2.27450991
617.0756836,2.27450991
617.0797119,2.19607854
617.0838623,2.17647052
617.0838623,2.09803915
617.0879517,2.09803915
617.092041,2
617.0960083,2
617.0960083,2.11764717
617.1001587,2.07843137
617.1042481,2.07843137
617.1042481,2.07843137
617.1083984,2.0392158
617.1124878,1.82352936
617.1165161,1.47058821
617.1165161,1.13725495
617.1207886,1.05882359
617.1248169,1.0196079
617.1289063,0.86274511
617.1289063,0.84313726
617.1328735,0.72549021
617.137085,0.64705884
617.1412354,0.49019608
617.1453857,0.49019608
617.149353,0.52941179
617.149353,0.52941179
617.1536255,0.70588237
617.1575317,0.74509805
617.1616821,0.72549021
617.1616821,0.86274511
617.1657715,1.0196079
617.1698608,1.21568632
617.1738892,1.41176474
617.1738892,1.58823526
617.1779785,1.7647059
617.1821899,2.01960778
617.1861572,2.60784316
617.1903076,2.94117641
617.1943359,3.13725495
617.1943359,3.25490189
617.1986694,3.31372547
617.2025757,3.49019599
617.2067871,3.78431368
617.2067871,3.88235283
617.2108154,3.56862736
617.2149658,3.50980401
617.2190552,3.47058821
617.2190552,3.39215684
617.2230225,3.37254906
617.2271729,3.45098042
617.2271729,3.52941179
617.2312622,3.64705873
617.2354126,3.62745094
617.239502,3.60784316
617.239502,3.58823538
617.2434692,3.60784316
617.2475586,3.62745094
617.2518311,3.62745094
617.2518311,3.56862736
617.2557373,3.66666675
617.2600098,3.60784316
617.2640381,3.68627453
617.2682495,3.78431368
617.2724609,3.7647059
617.2724609,3.70588231
617.2762451,3.72549009
617.2805176,3.60784316
617.2846069,3.58823538
617.2846069,3.58823538
617.2887573,3.62745094
617.2926636,3.49019599
617.2967529,3.25490189
617.2967529,3.11764717
617.3010254,3.05882359
617.3049927,3.05882359
617.3092041,2.9607842
617.3131714,2.92156863
617.3173218,2.90196085
617.3173218,2.90196085
617.3216553,3
617.3255005,2.90196085
617.3296509,2.88235283
617.3296509,2.94117641
617.3336182,3
617.3377686,2.9607842
617.34198,2.9607842
617.34198,3.0392158
617.3458252,2.94117641
617.3500366,2.86274505
617.354187,2.86274505
617.3582764,2.80392146
617.3623657,2.82352948
617.3623657,2.9607842
617.3665161,3.0392158
617.3704834,2.98039222
617.3746338,3.0392158
617.3746338,3.07843137
617.3787231,3.13725495
617.3827515,3.19607854
617.3869629,2.88235283
617.3869629,2.60784316
617.3909912,2.47058821
617.3952637,2.43137264
617.3952637,2.45098042
617.3991089,2.43137264
617.4032593,2.45098042
617.4075317,2.43137264
617.4075317,2.49019599
617.411499,2.52941179
617.4156494,2.52941179
617.4197998,2.52941179
617.4197998,2.49019599
617.4237671,2.54901958
617.4278565,2.60784316
617.4320068,2.64705873
617.4360352,2.68627453
617.4401856,2.68627453
617.4401856,2.68627453
617.4442139,2.68627453
617.4483643,2.68627453
617.4525757,2.84313726
617.4525757,2.78431368
617.456604,2.78431368
617.4606323,2.74509811
617.4647217,2.78431368
617.4647217,2.80392146
617.4690552,2.82352948
617.4729004,2.82352948
617.4769898,2.72549009
617.4811401,2.60784316
617.4853516,2.35294127
617.4853516,2.27450991
617.4894409,2.33333325
617.4935913,2.37254906
617.4976196,2.33333325
617.4976196,2.39215684
617.50177,2.43137264
617.5058594,2.39215684
617.5098877,2.39215684
617.5098877,2.41176462
617.5139771,2.47058821
617.5180054,2.49019599
617.5180054,2.45098042
617.5222778,2.45098042
617.526062,2.50980401
617.5303345,2.54901958
617.5303345,2.58823538
617.5343018,2.66666675
617.5385132,2.60784316
617.5427246,2.62745094
617.5427246,2.78431368
617.5466309,2.86274505
617.5507813,2.90196085
617.5549316,2.90196085
617.5549316,2.68627453
617.559021,2.52941179
617.5631104,2.62745094
617.5631104,2.70588231
617.5671387,2.49019599
617.5712891,2.35294127
617.5754395,2.19607854
617.5754395,2.11764717
617.5795288,2.07843137
617.5835571,2.13725495
617.5877075,2.19607854
617.5877075,2.15686274
617.5917358,2.09803915
617.5958252,2.0392158
617.5998535,1.96078432
617.6040649,1.9803921
617.6080933,2.01960778
617.6080933,2.13725495
617.6122437,2.19607854
617.616272,2.35294127
617.6206055,2.35294127
617.6206055,2.33333325
617.6245728,2.33333325
617.6286621,2.54901958
617.6326904,2.72549009
617.6326904,2.86274505
617.6368408,2.98039222
617.6409912,2.90196085
617.6450195,2.70588231
617.6491089,2.7647059
617.6533203,2.88235283
617.6533203,2.88235283
617.6571655,2.80392146
617.661377,2.56862736
617.6654663,2.39215684
617.6654663,2.41176462
617.6695557,2.43137264
617.673645,2.50980401
617.6777954,2.50980401
617.6777954,2.35294127
617.6818848,2.41176462
617.6860352,2.49019599
617.6860352,2.49019599
617.6900635,2.56862736
617.6940918,2.58823538
617.6983643,2.68627453
617.6983643,2.60784316
617.7023926,2.56862736
617.706604,2.35294127
617.7105103,2.0392158
617.7105103,1.7647059
617.7146606,1.33333337
617.7188721,0.78431374
617.7229004,0
617.7269287,0
617.7310181,0
617.7310181,0
617.7352295,0
617.7392578,0
617.7434082,0.35294119
617.7434082,0.94117647
617.7474976,1.45098042
617.7514648,1.80392158
617.7556152,2.19607854
617.7556152,2.58823538
617.7596436,2.9607842
617.763794,3.2352941
617.7678223,3.56862736
617.7720947,3.45098042
617.7761231,3.39215684
617.7761231,3.29411769
617.7802124,3.17647052
617.7841797,3.15686274
617.7883911,3.17647052
617.7883911,3.17647052
617.7924805,3.15686274
617.7965088,3.15686274
617.8009033,3.09803915
617.8009033,3.09803915
617.8047485,3.05882359
617.8088379,3.07843137
617.8088379,3.05882359
617.8129273,3.0392158
617.8170166,3.01960778
617.821106,3.0392158
617.821106,3.11764717
617.8251953,3.11764717
617.8293457,3.0392158
617.8335571,2.9607842
617.8335571,2.82352948
617.8375244,2.66666675
617.8416138,2.54901958
617.8457031,2.45098042
617.8457031,2.52941179
617.8497315,2.50980401
617.8538818,2.43137264
617.8538818,2.35294127
617.8579712,2.33333325
617.8621216,2.33333325
617.866272,2.37254906
617.866272,2.33333325
617.8702393,2.33333325
617.8743286,2.29411769
617.87854,2.21568632
617.87854,2.11764717
617.8825684,2.09803915
617.8867188,2.07843137
617.890686,1.92156863
617.8948975,1.78431368
617.8989868,1.66666663
617.8989868,1.54901958
617.9031982,1.54901958
617.9071045,1.56862748
617.9113159,1.58823526
617.9113159,1.54901958
617.9154053,1.33333337
617.9195557,1.15686274
617.923523,1.05882359
617.923523,1.05882359
617.9276733,0.90196079
617.9317627,0.70588237
617.9359131,0.60784316
617.9399414,0.58823532
617.9440308,0.60784316
617.9440308,0.60784316
617.9483032,0.627451
617.9524536,0.70588237
617.9564209,0.78431374
617.9564209,0.86274511
617.9605103,0.94117647
617.9646606,1.03921568
617.9686279,1.11764705
617.9686279,1.27450979
617.9727783,1.49019611
617.9769287,1.74509799
617.9769287,1.96078432
617.980896,2.21568632
617.9849854,2.45098042
617.9891357,2.64705873
617.9891357,2.94117641
617.993103,3.0392158
617.9973755,3.2352941
618.0015869,3.35294127
618.0015869,3.49019599
618.0056152,3.45098042
618.0095825,3.58823538
618.0136719,3.62745094
618.0136719,3.72549009
618.0177002,3.7647059
618.0219727,3.62745094
618.0219727,3.54901958
618.026062,3.54901958
618.0300903,3.58823538
618.0341187,3.68627453
618.0341187,3.70588231
618.038269,3.62745094
618.0423584,3.62745094
618.0465088,3.54901958
618.0465088,3.62745094
618.0504761,3.60784316
618.0546265,3.52941179
618.0587769,3.43137264
618.0629273,3.43137264
618.0668335,3.45098042
618.0668335,3.52941179
618.0709229,3.49019599
618.0751953,3.50980401
618.0792236,3.50980401
618.0792236,3.33333325
618.083313,3.33333325
618.0875855,3.45098042
618.0914917,3.58823538
618.0914917,3.60784316
618.0955811,3.41176462
618.0997925,3.13725495
618.1037598,2.80392146
618.1079712,2.88235283
618.1119995,2.9607842
618.1119995,3
618.1161499,3
618.1203003,2.86274505
618.1243897,2.74509811
618.1243897,2.72549009
618.12854,2.80392146
618.1325073,2.86274505
618.1367798,2.90196085
618.1367798,2.82352948
618.140625,2.80392146
618.1448975,2.74509811
618.1448975,2.74509811
618.1488648,2.74509811
618.1530762,2.78431368
618.1570435,2.84313726
618.1570435,2.78431368
618.1611939,2.7647059
618.1652832,2.74509811
618.1694336,2.78431368
618.1694336,2.78431368
618.173523,2.82352948
618.1775513,2.88235283
618.1817017,2.74509811
618.185791,2.72549009
618.1899414,2.56862736
618.1899414,2.54901958
618.1938477,2.56862736
618.1980591,2.54901958
618.2022705,2.54901958
618.2022705,2.66666675
618.2064209,2.58823538
618.2102051,2.64705873
618.2144775,2.62745094
618.2144775,2.64705873
618.2186279,2.45098042
618.2226563,2.43137264
618.2267456,2.47058821
618.2307739,2.54901958
618.2349854,2.60784316
618.2349854,2.68627453
618.2390137,2.54901958
618.243103,2.52941179
618.2471314,2.56862736
618.2471314,2.70588231
618.2514038,2.70588231
618.2554321,2.66666675
618.2595215,2.62745094
618.2595215,2.47058821
618.2636108,2.49019599
618.2676392,2.49019599
618.2676392,2.49019599
618.2717896,2.54901958
618.2758789,2.58823538
618.2800293,2.56862736
618.2800293,2.54901958
618.2839966,2.56862736
618.288269,2.52941179
618.2922974,2.52941179
618.2922974,2.50980401
618.2963867,2.52941179
618.3004761,2.41176462
618.3046265,2.37254906
618.3046265,2.41176462
618.3085938,2.52941179
618.3128052,2.58823538
618.3128052,2.60784316
618.3167725,2.56862736
618.3208618,2.50980401
618.3250732,2.60784316
618.3250732,2.56862736
618.3291016,2.62745094
618.333252,2.64705873
618.3372803,2.60784316
618.3372803,2.49019599
618.3414917,2.39215684
618.345459,2.37254906
618.3496094,2.43137264
618.3536377,2.41176462
618.3577881,2.41176462
618.3577881,2.54901958
618.3618774,2.56862736
618.3659668,2.60784316
618.3701172,2.70588231
618.3701172,2.72549009
618.3740234,2.80392146
618.3782959,2.74509811
618.3823242,2.58823538
618.3823242,2.56862736
618.3865356,2.47058821
618.3905029,2.52941179
618.3946533,2.45098042
618.3987427,2.49019599
618.4029541,2.47058821
618.4029541,2.54901958
618.4069214,2.62745094
618.4109497,2.62745094
618.4151611,2.64705873
618.4151611,2.56862736
618.4193726,2.39215684
618.4234009,2.41176462
618.4274902,2.41176462
618.4274902,2.37254906
618.4315186,2.29411769
618.43573,2.2352941
618.43573,2.21568632
618.4398193,2.21568632
618.4436646,2.31372547
618.4479981,2.37254906
618.4479981,2.31372547
618.4521484,2.29411769
618.4561768,2.31372547
618.4602051,2.25490189
618.4602051,2.2352941
618.4642334,2.15686274
618.4686279,2.29411769
618.4725342,2.58823538
618.4766235,2.62745094
618.480835,2.56862736
618.480835,2.64705873
618.4847412,2.7647059
618.4888916,2.80392146
618.492981,2.82352948
618.492981,2.7647059
618.4969482,2.74509811
618.5012207,2.74509811
618.505249,2.70588231
618.505249,2.64705873
618.5094605,2.70588231
618.5134888,2.68627453
618.5175171,2.78431368
618.5216675,2.78431368
618.5256958,2.80392146
618.5256958,2.82352948
618.5299072,2.86274505
618.5338745,2.86274505
618.5379639,2.74509811
618.5379639,2.62745094
618.5421143,2.56862736
618.5462647,2.27450991
618.550354,1.96078432
618.550354,1.52941179
618.5545044,0.94117647
618.5584717,0.39215687
618.5626831,0
618.5667725,0
618.5707398,0
618.5707398,0
618.5749512,0.01960784
618.5789795,0.21568628
618.5831909,0.66666669
618.5831909,1.35294116
618.5871582,1.92156863
618.5913086,2.39215684
618.59552,2.72549009
618.59552,3.01960778
618.5995483,3.39215684
618.6036987,3.56862736
618.6036987,3.72549009
618.607666,3.78431368
618.6117554,3.70588231
618.6158447,3.7647059
618.6158447,3.64705873
618.6199951,3.54901958
618.6240845,3.43137264
618.6281738,3.43137264
618.6281738,3.35294127
618.6322632,3.41176462
618.6363525,3.13725495
618.640564,3.01960778
618.6445313,3.07843137
618.6488037,3.07843137
618.6488037,3.13725495
618.652771,3.11764717
618.6569214,3.05882359
618.6608887,2.92156863
618.6608887,2.80392146
618.664978,2.82352948
618.6691895,2.94117641
618.6732788,2.82352948
618.6732788,2.80392146
618.6772461,2.72549009
618.6815186,2.58823538
618.685669,2.54901958
618.6896973,2.56862736
618.6937866,2.58823538
618.6937866,2.47058821
618.6976929,2.33333325
618.7019043,2.35294127
618.7060547,2.39215684
618.7060547,2.37254906
618.7102661,2.29411769
618.7141724,2.17647052
618.7182617,2.15686274
618.7182617,2
618.7224121,1.92156863
618.7265625,1.86274505
618.7265625,1.7647059
618.7304688,1.64705884
618.7346191,1.56862748
618.7387695,1.52941179
618.7387695,1.43137252
618.7428589,1.45098042
618.7468262,1.43137252
618.7510376,1.31372547
618.7510376,1.17647064
618.755188,1.07843137
618.7594605,1.0196079
618.7633667,0.92156863
618.7633667,0.86274511
618.7675171,0.7647059
618.7716065,0.78431374
618.7716065,0.66666669
618.7755737,0.58823532
618.7797852,0.58823532
618.7838745,0.56862748
618.7838745,0.54901963
618.7879028,0.68627453
618.7919922,0.80392158
618.7961426,0.86274511
618.7961426,0.98039216
618.8002319,0.96078432
618.8042603,1.03921568
618.8085327,1.41176474
618.812561,1.66666663
618.8167114,1.90196073
618.8167114,2.13725495
618.8206177,2.25490189
618.8247681,2.47058821
618.8289185,2.64705873
618.8289185,2.84313726
618.8330689,2.94117641
618.8371582,3.05882359
618.8411255,3.13725495
618.8411255,3.25490189
618.8452148,3.47058821
618.8494263,3.62745094
618.8535156,3.7647059
618.8574829,3.7647059
618.8616333,3.72549009
618.8616333,3.82352948
618.8657837,3.80392146
618.8698731,3.86274505
618.8740845,3.90196085
618.8740845,3.80392146
618.8779907,3.70588231
618.8820801,3.64705873
618.8862915,3.68627453
618.8862915,3.60784316
618.8904419,3.56862736
618.8945923,3.54901958
618.8945923,3.60784316
618.8984985,3.54901958
618.90271,3.58823538
618.9066773,3.60784316
618.9066773,3.56862736
618.9107056,3.45098042
618.914856,3.43137264
618.9190064,3.33333325
618.9190064,3.33333325
618.9231567,3.29411769
618.9272461,3.21568632
618.9312744,3.31372547
618.9355469,3.33333325
618.9396362,3.27450991
618.9396362,3.2352941
618.9436035,3.19607854
618.9476318,3.17647052
618.9519043,3.05882359
618.9519043,2.94117641
618.9560547,2.88235283
618.9599609,2.78431368
618.9641113,2.78431368
618.9641113,2.80392146
618.9684448,2.84313726
618.97229,2.80392146
618.9763794,2.94117641
618.9805298,2.88235283
618.9845581,2.98039222
618.9845581,3.11764717
618.9886475,3.07843137
618.9927368,2.94117641
618.9968872,2.78431368
618.9968872,2.70588231
619.0008545,2.62745094
619.005127,2.68627453
619.0090942,2.80392146
619.0090942,2.82352948
619.0133667,2.70588231
619.017334,2.7647059
619.017334,2.68627453
619.0215454,2.60784316
619.0254517,2.64705873
619.0296021,2.78431368
619.0296021,2.7647059
619.0338135,2.74509811
619.0377808,2.7647059
619.0418701,2.80392146
619.0418701,2.7647059
619.0460205,2.7647059
619.0501099,2.78431368
619.0542603,2.72549009
619.0542603,2.74509811
619.0582275,2.80392146
619.062561,2.78431368
619.062561,2.88235283
619.0665894,2.84313726
619.0706177,2.92156863
619.0748291,2.90196085
619.0748291,2.9607842
619.0786743,3
619.0829468,2.82352948
619.0870361,2.80392146
619.0870361,2.80392146
619.0910034,2.66666675
619.0950928,2.68627453
619.0991821,2.60784316
619.1034546,2.62745094
619.1074829,2.64705873
619.1074829,2.68627453
619.1115112,2.68627453
619.1156006,2.70588231
619.119751,2.7647059
619.119751,2.80392146
619.1239014,2.72549009
619.1279297,2.70588231
619.131958,2.68627453
619.131958,2.74509811
619.1361694,2.7647059
619.1401978,2.74509811
619.1444092,2.86274505
619.1484375,2.9607842
619.1525879,2.92156863
619.1525879,2.80392146
619.1566162,2.84313726
619.1607666,2.66666675
619.1647339,2.60784316
619.1647339,2.50980401
619.1689453,2.54901958
619.1729736,2.47058821
619.177124,2.54901958
619.177124,2.64705873
619.1810913,2.62745094
619.1853638,2.60784316
619.1853638,2.58823538
619.1894531,2.64705873
619.1934204,2.70588231
619.1976929,2.82352948
619.1976929,2.94117641
619.2015991,2.82352948
619.2058106,2.86274505
619.2098389,2.80392146
619.2098389,2.7647059
619.2141113,2.84313726
619.2180176,2.80392146
619.2221069,2.92156863
619.2263184,2.90196085
619.2304077,2.90196085
619.2304077,3
619.2345581,2.92156863
619.2385254,2.78431368
619.2426148,2.66666675
619.2426148,2.68627453
619.2467041,2.7647059
619.2509155,2.66666675
619.2549439,2.52941179
619.2549439,2.41176462
619.2590332,2.21568632
619.2631226,2.13725495
619.267273,2.33333325
619.2712402,2.47058821
619.2754517,2.56862736
619.2754517,2.56862736
619.2796021,2.54901958
619.2836304,2.54901958
619.2877808,2.52941179
619.2877808,2.68627453
619.2917481,2.78431368
619.2958374,2.80392146
619.2999878,2.80392146
619.2999878,2.84313726
619.3041382,3
619.3081665,3.15686274
619.3123169,2.94117641
619.3163452,2.94117641
619.3204346,2.94117641
619.3204346,2.88235283
619.3245239,2.84313726
619.3285523,2.84313726
619.3328857,2.84313726
619.3328857,2.82352948
619.3369141,2.78431368
619.3408814,2.84313726
619.3449707,2.80392146
619.3449707,2.80392146
619.3491211,2.70588231
619.3532715,2.68627453
619.3532715,2.74509811
619.3573608,2.72549009
619.3615112,2.62745094
619.3654785,2.52941179
619.3654785,2.37254906
619.3696289,2.01960778
619.3737183,1.68627453
619.3779297,1.21568632
619.3779297,0.627451
619.3818359,0.01960784
619.3860474,0
619.3900757,0
619.3943481,0
619.3982544,0.13725491
619.3982544,0.41176471
619.4024658,0.88235295
619.4064941,1.58823526
619.4106445,2.21568632
619.4106445,2.84313726
619.4146118,3.15686274
619.4188232,3.33333325
619.4228516,3.47058821
619.4228516,3.62745094
619.427002,3.70588231
619.4310913,3.74509811
619.4351807,3.45098042
619.4393311,3.09803915
619.4434204,2.9607842
619.4434204,2.92156863
619.4475708,2.9607842
619.4514771,2.92156863
619.4556885,2.88235283
619.4556885,2.72549009
619.4597778,2.68627453
619.4638672,2.7647059
619.4681397,2.88235283
619.4681397,2.88235283
619.4719849,2.70588231
619.4761353,2.60784316
619.4761353,2.62745094
619.4802246,2.39215684
619.4844971,2.25490189
619.4885254,2.31372547
619.4885254,2.31372547
619.4924927,2.31372547
619.496582,2.37254906
619.5007935,2.37254906
619.5007935,2.31372547
619.5048828,2.27450991
619.5088501,2.2352941
619.5130005,2.17647052
619.5130005,2.21568632
619.5172119,2.41176462
619.5213013,2.35294127
619.5213013,2.25490189
619.5252075,2.13725495
619.5293579,2.05882359
619.5335083,1.70588231
619.5335083,1.50980389
619.5375977,1.50980389
619.541626,1.54901958
619.5457153,1.52941179
619.5457153,1.60784316
619.5498657,1.60784316
619.5540161,1.39215684
619.5581055,1.15686274
619.5620728,1.05882359
619.5663452,1.03921568
619.5663452,1
619.5703735,1
619.5744019,1
619.5784912,1.0196079
619.5784912,0.88235295
619.5826416,0.88235295
619.586792,0.74509805
619.5908203,0.66666669
619.5908203,0.66666669
619.5949097,0.64705884
619.598938,0.627451
619.6031494,0.50980395
619.6072388,0.66666669
619.6113281,0.49019608
619.6113281,0.43137255
619.6154785,0.627451
619.6194458,0.94117647
619.6236572,0.98039216
619.6236572,0.98039216
619.6278076,0.98039216
619.6317139,1.17647064
619.6359863,1.39215684
619.6359863,1.56862748
619.6400147,1.7647059
619.644165,2.05882359
619.644165,2.31372547
619.6480713,2.45098042
619.6523438,2.58823538
619.6564941,2.78431368
619.6564941,2.9607842
619.6604614,3.0392158
619.6646118,3.25490189
619.6686401,3.39215684
619.6686401,3.54901958
619.6727295,3.74509811
619.6768799,3.80392146
619.6810303,3.62745094
619.6849976,3.49019599
619.689209,3.58823538
619.689209,3.50980401
619.6932373,3.50980401
619.6973877,3.50980401
619.7015381,3.49019599
619.7015381,3.52941179
619.7056274,3.56862736
619.7095947,3.62745094
619.7136841,3.62745094
619.7136841,3.54901958
619.7177734,3.52941179
619.7218628,3.45098042
619.7260132,3.45098042
619.7301025,3.43137264
619.7342529,3.37254906
619.7342529,3.39215684
619.7382813,3.43137264
619.7424927,3.41176462
619.74646,3.43137264
619.74646,3.52941179
619.7506714,3.58823538
619.7546387,3.54901958
619.7588501,3.52941179
619.7588501,3.29411769
619.7629395,3.0392158
619.7672119,2.94117641
619.7672119,2.88235283
619.7713013,3.0392158
619.7752075,3.01960778
619.779419,2.98039222
619.779419,2.90196085
619.7835693,2.86274505
619.7876587,2.92156863
619.7915649,2.88235283
619.7915649,2.80392146
619.7955933,2.84313726
619.7996826,2.86274505
619.8039551,2.86274505
619.8039551,3
619.8082886,3
619.8120117,2.92156863
619.8120117,2.80392146
619.8161621,2.86274505
619.8201904,2.84313726
619.8244629,2.9607842
619.8244629,3.09803915
619.8284912,3.11764717
619.8325195,3.09803915
619.836792,3.01960778
619.836792,2.80392146
619.8407593,2.58823538
619.8449097,2.56862736
619.8488159,2.74509811
619.8530884,2.60784316
619.8571167,2.60784316
619.8571167,2.60784316
619.8612061,2.66666675
619.8652344,2.72549009
619.8695068,2.74509811
619.8695068,2.82352948
619.8735352,2.70588231
619.8776856,2.78431368
619.8817139,2.7647059
619.8817139,2.7647059
619.8858032,2.78431368
619.8898315,2.70588231
619.894043,2.64705873
619.8980103,2.72549009
619.9022217,2.86274505
619.9022217,2.74509811
619.906189,2.82352948
619.9103394,2.92156863
619.9145508,2.82352948
619.9145508,2.80392146
619.9185181,2.82352948
619.9226074,2.78431368
619.9267578,2.82352948
619.9267578,2.84313726
619.9308472,2.82352948
619.9349365,2.80392146
619.9349365,2.72549009
619.9390869,2.64705873
619.9431152,2.60784316
619.9472656,2.66666675
619.9472656,2.74509811
619.951416,2.7647059
619.9555664,2.84313726
619.9595337,2.84313726
619.9595337,2.78431368
619.9636231,2.7647059
619.9677734,2.74509811
619.9717407,2.82352948
619.9717407,2.78431368
619.9758911,2.7647059
619.9799805,2.68627453
619.9799805,2.64705873
619.9841309,2.74509811
619.9881592,2.90196085
619.9922485,2.94117641
619.9922485,2.86274505
619.9963379,2.74509811
620.0005493,2.56862736
620.0046387,2.56862736
620.0046387,2.60784316
620.0085449,2.74509811
620.0127564,2.60784316
620.0168457,2.49019599
620.0211182,2.43137264
620.0250855,2.41176462
620.0250855,2.39215684
620.0291748,2.50980401
620.0332031,2.41176462
620.0373535,2.37254906
620.0373535,2.41176462
620.0414429,2.37254906
620.0454712,2.39215684
620.0495606,2.49019599
620.0495606,2.49019599
620.0537109,2.52941179
620.0578613,2.68627453
620.0618286,2.62745094
620.06604,2.41176462
620.0701294,2.41176462
620.0701294,2.47058821
620.0743408,2.47058821
620.0783081,2.62745094
620.0825806,2.74509811
620.0825806,2.84313726
620.0864868,2.82352948
620.0905762,2.7647059
620.0947266,2.7647059
620.0947266,2.84313726
620.0986939,2.80392146
620.1029053,2.68627453
620.1029053,2.70588231
620.1069946,2.70588231
620.111084,2.7647059
620.1152344,2.84313726
620.1152344,3.0392158
620.1192627,3.05882359
620.1233521,3.19607854
620.1275635,3.13725495
620.1275635,3.25490189
620.1314087,3.13725495
620.1356812,2.90196085
620.1397095,2.78431368
620.1439819,2.7647059
620.1480103,2.82352948
620.1480103,2.84313726
620.1520386,2.50980401
620.156189,2.11764717
620.1603394,1.80392158
620.1603394,1.45098042
620.1644287,0.94117647
620.168457,0.43137255
620.1724854,0
620.1724854,0
620.1765747,0
620.1807251,0.23529412
620.1848145,1.09803927
620.1889648,1.7647059
620.1929932,2.43137264
620.1929932,3.13725495
620.1972656,3.37254906
620.2011719,3.64705873
620.2054443,3.88235283
620.2054443,4.1960783
620.2094727,4.41176462
620.2134399,4.43137264
620.2177734,4.37254906
620.2177734,4.13725471
620.2217407,3.88235283
620.225708,3.58823538
620.225708,3.41176462
620.2298584,3.33333325
620.2340088,3.29411769
620.2381592,3.29411769
620.2381592,3.2352941
620.2420654,3.15686274
620.2462158,3.01960778
620.2503052,2.98039222
620.2503052,2.9607842
620.2545776,2.88235283
620.2584229,2.94117641
620.2626343,2.84313726
620.2626343,2.84313726
620.2667847,2.80392146
620.2709351,2.78431368
620.2709351,2.78431368
620.2749634,2.84313726
620.2789307,2.80392146
620.2832642,2.84313726
620.2832642,2.72549009
620.2872315,2.70588231
620.2914429,2.70588231
620.2954712,2.62745094
620.2954712,2.50980401
620.2996216,2.41176462
620.3036499,2.31372547
620.3077393,2.25490189
620.3117676,2.15686274
620.315918,2.05882359
620.315918,2.05882359
620.3200073,2.11764717
620.3242798,2.05882359
620.3282471,1.9803921
620.3282471,1.94117641
620.3322754,1.82352936
620.3365479,1.82352936
620.3405151,1.70588231
620.3405151,1.62745094
620.3446045,1.64705884
620.3487549,1.64705884
620.3528442,1.54901958
620.3568726,1.50980389
620.361023,1.33333337
620.361023,1.25490201
620.3651123,1.17647064
620.3690796,1.03921568
620.373169,0.84313726
620.373169,0.72549021
620.3774414,0.54901963
620.3814697,0.4509804
620.3854981,0.54901963
620.3854981,0.47058824
620.3895264,0.54901963
620.3937988,0.58823532
620.3937988,0.627451
620.3978272,0.627451
620.4018555,0.72549021
620.4060059,0.82352942
620.4060059,0.94117647
620.4100342,1.13725495
620.4143066,1.39215684
620.418396,1.62745094
620.418396,1.66666663
620.4224854,1.88235295
620.4264526,2.17647052
620.430603,2.39215684
620.430603,2.60784316
620.4346924,2.78431368
620.4389648,2.94117641
620.4389648,2.94117641
620.4428101,3.05882359
620.4468994,3.27450991
620.4511719,3.35294127
620.4511719,3.47058821
620.4551392,3.49019599
620.4592896,3.58823538
620.4634399,3.60784316
620.4634399,3.68627453
620.4675293,3.74509811
620.4716187,3.72549009
620.4755859,3.78431368
620.4797363,3.84313726
620.4838257,3.82352948
620.4838257,3.80392146
620.4880371,3.78431368
620.4920044,3.7647059
620.4961548,3.60784316
620.4961548,3.58823538
620.5003052,3.66666675
620.5044556,3.84313726
620.5084839,3.78431368
620.5084839,3.88235283
620.5125122,3.86274505
620.5166016,3.7647059
620.520874,3.54901958
620.5248413,3.47058821
620.5289917,3.43137264
620.5289917,3.49019599
620.53302,3.58823538
620.5371704,3.62745094
620.5412598,3.60784316
620.5412598,3.54901958
620.5453491,3.41176462
620.5494995,3.2352941
620.5535278,3.19607854
620.5535278,3.19607854
620.5576172,3.15686274
620.5617676,3.07843137
620.5617676,3.05882359
620.5657349,3.0392158
620.5698242,3.13725495
620.5740356,3.09803915
620.5740356,3.01960778
620.578064,2.88235283
620.5821533,2.88235283
620.5863037,2.9607842
620.5863037,3.07843137
620.5903931,3.11764717
620.5944824,3.21568632
620.5985718,2.9607842
620.6026611,2.98039222
620.6067505,2.92156863
620.6067505,2.88235283
620.6108398,2.88235283
620.6149902,2.9607842
620.6191406,2.82352948
620.6191406,2.74509811
620.623169,2.80392146
620.6273193,2.78431368
620.6313477,2.80392146
620.6313477,2.84313726
620.6356812,2.88235283
620.6394653,2.82352948
620.6436157,2.94117641
620.6477051,3.01960778
620.6520386,3.0392158
620.6520386,3.17647052
620.6558838,3.13725495
620.6599731,3.07843137
620.6640625,3.15686274
620.6640625,3.17647052
620.6682129,3.17647052
620.6722412,3.2352941
620.6764526,3.33333325
620.6764526,3.35294127
620.680481,3.35294127
620.6845703,3.29411769
620.6845703,3.15686274
620.6887207,3.13725495
620.692749,3.21568632
620.6968994,3.21568632
620.6968994,3.09803915
620.7009277,3.09803915
620.7052002,3.13725495
620.7091065,3.19607854
620.7091065,3.17647052
620.7131958,3.15686274
620.7175293,3.07843137
620.7214966,3.09803915
620.7214966,3.15686274
620.7254639,3.13725495
620.7296143,3.09803915
620.7296143,3.17647052
620.7337647,3.19607854
620.737854,3.21568632
620.7419434,3.19607854
620.7419434,3.2352941
620.7459106,3.21568632
620.7501831,3.29411769
620.7543335,3.29411769
620.7543335,3.19607854
620.7583008,3.09803915
620.7625122,3.11764717
620.7665405,2.9607842
620.770752,2.90196085
620.7746582,2.88235283
620.7746582,3
620.7787476,3.01960778
620.7828369,3.07843137
620.7869873,3.07843137
620.7869873,2.88235283
620.7911377,2.68627453
620.7952271,2.58823538
620.7993774,2.54901958
620.7993774,2.47058821
620.8035278,2.60784316
620.8074951,2.58823538
620.8116455,2.62745094
620.8156738,2.68627453
620.8197022,2.80392146
620.8197022,2.90196085
620.8239136,3.07843137
620.8279419,3.05882359
620.8321533,3.09803915
620.8321533,3.13725495
620.8361816,3.11764717
620.840271,3.05882359
620.8443604,3.05882359
620.8443604,3.2352941
620.8484497,3.27450991
620.8526611,3.25490189
620.8526611,3.13725495
620.8566284,3.15686274
620.8607178,3.13725495
620.8648682,3.09803915
620.8648682,3.09803915
620.8688355,2.94117641
620.8729248,3.0392158
620.8771973,2.94117641
620.8771973,2.90196085
620.8812256,2.86274505
620.885437,2.82352948
620.8894653,2.74509811
620.8934937,2.60784316
620.897644,2.45098042
620.897644,2.2352941
620.9017944,1.94117641
620.9057007,1.70588231
620.9098511,1.35294116
620.9098511,0.84313726
620.9140015,0.15686275
620.9180908,0
620.9222412,0
620.9222412,0.05882353
620.9262085,0.47058824
620.930481,0.94117647
620.9344482,1.78431368
620.9387207,2.25490189
620.942749,2.84313726
620.942749,3.29411769
620.9467163,3.60784316
620.9509277,3.90196085
620.9552002,4.09803915
620.9552002,4.09803915
620.9589844,3.9607842
620.9631348,3.86274505
620.9672852,3.66666675
620.9672852,3.45098042
620.9713745,3.39215684
620.9754639,3.35294127
620.9754639,3.29411769
620.9794922,3.2352941
620.9835815,3.13725495
620.9877319,3.09803915
620.9877319,3.17647052
620.9918823,3.01960778
620.9959106,3.01960778
620.999939,3.05882359
620.999939,3.21568632
621.0042114,3.13725495
621.0081787,3.07843137
621.0123901,2.9607842
621.0123901,2.88235283
621.0164185,2.98039222
621.0205689,3.05882359
621.0205689,2.78431368
621.0245972,2.66666675
621.0286865,2.62745094
621.0327759,2.66666675
621.0327759,2.62745094
621.0368652,2.60784316
621.0410156,2.52941179
621.045044,2.29411769
621.045044,2.27450991
621.0490723,2.25490189
621.0532837,2.25490189
621.0574341,2.13725495
621.0614624,2.09803915
621.0656738,2.13725495
621.0656738,2.11764717
621.0696411,2.11764717
621.0737915,2.07843137
621.0778198,2.09803915
621.0778198,1.88235295
621.0820923,1.82352936
621.0861206,1.74509799
621.0901489,1.70588231
621.0901489,1.68627453
621.0942383,1.54901958
621.0983276,1.47058821
621.1025391,1.17647064
621.1065064,1
621.1105957,0.88235295
621.1105957,0.86274511
621.1147461,0.84313726
621.1188355,0.84313726
621.1229248,0.64705884
621.1229248,0.47058824
621.1270142,0.47058824
621.1310425,0.54901963
621.1353149,0.56862748
621.1353149,0.60784316
621.1392212,0.56862748
621.1435547,0.56862748
621.1435547,0.627451
621.1474609,0.70588237
621.1516724,0.82352942
621.1557617,1.0196079
621.1557617,1.27450979
621.159668,1.39215684
621.1638184,1.58823526
621.1679077,1.90196073
621.1679077,2.13725495
621.1721191,2.33333325
621.1761475,2.49019599
621.1802368,2.62745094
621.1802368,2.7647059
621.1843262,2.90196085
621.1885986,3.11764717
621.1885986,3.21568632
621.1925049,3.27450991
621.1965332,3.17647052
621.2008057,3.33333325
621.2008057,3.41176462
621.204895,3.52941179
621.2090454,3.41176462
621.2128906,3.41176462
621.2128906,3.47058821
621.2172241,3.47058821
621.2212524,3.45098042
621.2254028,3.49019599
621.2294922,3.58823538
621.2335205,3.64705873
621.2335205,3.58823538
621.2376099,3.49019599
621.2416992,3.39215684
621.2458496,3.35294127
621.2458496,3.41176462
621.2498169,3.52941179
621.2540894,3.50980401
621.2580566,3.50980401
621.2580566,3.41176462
621.2622681,3.41176462
621.2661133,3.35294127
621.2705078,3.33333325
621.2744751,3.39215684
621.2786865,3.43137264
621.2786865,3.29411769
621.2827148,3.11764717
621.2867432,3.13725495
621.2908936,3.17647052
621.2908936,3.25490189
621.2949829,3.25490189
621.2990723,3.31372547
621.3031006,3.31372547
621.3031006,3.27450991
621.307251,3.31372547
621.3113403,3.37254906
621.3113403,3.29411769
621.3155518,3.27450991
621.319519,3.07843137
621.3236694,3
621.3236694,3.0392158
621.3276978,3.13725495
621.3319092,3.27450991
621.3360596,3.2352941
621.3360596,3.27450991
621.3399658,3.17647052
621.3441162,3.11764717
621.3482056,3.11764717
621.352417,3.11764717
621.3565064,3
621.3565064,2.98039222
621.3604736,2.9607842
621.364563,2.90196085
621.3687134,2.88235283
621.3687134,2.92156863
621.3726807,2.88235283
621.3770142,2.88235283
621.3809815,2.90196085
621.3809815,2.84313726
621.3851318,2.9607842
621.3891602,2.88235283
621.3932495,2.88235283
621.3973389,2.88235283
621.4014893,3.01960778
621.4014893,3.07843137
621.4056397,2.94117641
621.4095459,3
621.4137573,2.94117641
621.4137573,2.9607842
621.4179688,2.88235283
621.4219971,2.84313726
621.4261475,2.82352948
621.4261475,2.74509811
621.4301148,2.78431368
621.4342041,2.74509811
621.4342041,2.84313726
621.4384766,2.92156863
621.4424439,2.92156863
621.4464111,2.98039222
621.4464111,2.88235283
621.4506836,2.78431368
621.454834,2.80392146
621.4588013,2.78431368
621.4588013,2.82352948
621.4628296,2.84313726
621.467041,2.74509811
621.4711304,2.72549009
621.4711304,2.7647059
621.4752808,2.64705873
621.4793701,2.58823538
621.4793701,2.41176462
621.4834595,2.39215684
621.4874878,2.47058821
621.4915772,2.64705873
621.4915772,2.64705873
621.4958496,2.70588231
621.4998169,2.52941179
621.5039673,2.41176462
621.5039673,2.29411769
621.5079956,2.17647052
621.512207,2.17647052
621.5162354,2.19607854
621.5202637,2.15686274
621.5244751,2.19607854
621.5244751,2.17647052
621.5285034,2.33333325
621.5325317,2.33333325
621.5367432,2.29411769
621.5367432,2.39215684
621.5407105,2.41176462
621.5447998,2.45098042
621.5489502,2.47058821
621.5489502,2.62745094
621.5529785,2.64705873
621.5570679,2.72549009
621.5611572,2.54901958
621.5653687,2.47058821
621.569519,2.54901958
621.569519,2.64705873
621.5734863,2.74509811
621.5776367,2.80392146
621.5818481,2.82352948
621.5818481,2.74509811
621.5859375,2.72549009
621.5898438,2.70588231
621.5939331,2.72549009
621.5939331,2.82352948
621.5981445,2.84313726
621.6022949,2.84313726
621.6022949,2.78431368
621.6062012,2.7647059
621.6104736,2.88235283
621.6144409,2.78431368
621.6144409,2.7647059
621.6186523,2.52941179
621.6226807,2.13725495
621.62677,1.80392158
621.62677,1.43137252
621.6308594,0.90196079
621.6349487,0.33333334
621.6390991,0
621.6431885,0
621.6472168,0
621.6472168,0.07843138
621.6513672,0.29411766
621.6555176,0.72549021
621.6595459,1.29411769
621.6595459,1.82352936
621.6636353,2.37254906
621.6677246,2.7647059
621.671875,3.13725495
621.671875,3.39215684
621.6759644,3.78431368
621.6801148,4
621.684082,3.80392146
621.6882935,3.66666675
621.6923218,3.50980401
621.6923218,3.47058821
621.6964722,3.39215684
621.7005005,3.25490189
621.7045898,3.2352941
621.7045898,3.29411769
621.7088623,3.31372547
621.7128296,3.33333325
621.7168579,3.15686274
621.7168579,3.0392158
621.7211304,3.07843137
621.7250977,3.13725495
621.7292481,3.21568632
621.7332153,3.0392158
621.7374878,2.84313726
621.7374878,2.80392146
621.7414551,2.94117641
621.7456055,2.92156863
621.7496948,2.92156863
621.7496948,2.88235283
621.7538452,2.80392146
621.7578735,2.68627453
621.762085,2.56862736
621.762085,2.52941179
621.7660523,2.49019599
621.7701416,2.58823538
621.7701416,2.54901958
621.7741699,2.50980401
621.7783814,2.35294127
621.7825317,2.29411769
621.7825317,2.25490189
621.7865601,2.25490189
621.7906494,2.2352941
621.7947388,2.11764717
621.7947388,2.07843137
621.7988281,2.11764717
621.8029785,2
621.8069458,1.90196073
621.8110352,1.82352936
621.8152466,1.66666663
621.8152466,1.60784316
621.8193359,1.56862748
621.8235474,1.33333337
621.8274536,1.25490201
621.8274536,1.2352941
621.831665,1.2352941
621.8358154,1.13725495
621.8399048,1.13725495
621.8399048,0.94117647
621.8439331,0.92156863
621.8479614,0.80392158
621.8521729,0.74509805
621.8562622,0.84313726
621.8602295,0.86274511
621.8602295,0.84313726
621.8643189,0.90196079
621.8684082,1.03921568
621.8725586,1.21568632
621.8725586,1.31372547
621.876648,1.54901958
621.8807373,1.86274505
621.8847656,2.01960778
621.8847656,2.19607854
621.8890381,2.31372547
621.8931885,2.45098042
621.8931885,2.52941179
621.8970947,2.70588231
621.9011841,2.82352948
621.9053345,3.0392158
621.9053345,3.33333325
621.9094849,3.47058821
621.9134522,3.72549009
621.9176025,3.80392146
621.9176025,3.82352948
621.9216919,3.64705873
621.9258423,3.72549009
621.9299927,3.84313726
621.9299927,3.90196085
621.93396,3.88235283
621.9381714,3.9607842
621.9381714,4.03921556
621.9422607,4.03921556
621.946228,3.92156863
621.9505615,4.05882359
621.9505615,4.11764717
621.9544678,4.09803915
621.9586182,4.11764717
621.9626465,4.03921556
621.9626465,3.9607842
621.9667358,4
621.9708862,3.98039222
621.9749756,4.03921556
621.9790649,4.03921556
621.9832153,3.9607842
621.9832153,4
621.9872437,3.98039222
621.991333,4.05882359
621.9954834,4.01960802
621.9954834,4.03921556
621.9995728,3.94117641
622.0036621,3.72549009
622.0076904,3.72549009
622.0076904,3.74509811
622.0119629,3.60784316
622.0159912,3.66666675
622.0200195,3.68627453
622.0241089,3.70588231
622.0282593,3.62745094
622.0282593,3.52941179
622.0324097,3.47058821
622.0365601,3.47058821
622.0404663,3.49019599
622.0404663,3.50980401
622.0445557,3.45098042
622.0487061,3.37254906
622.0528565,3.50980401
622.0528565,3.62745094
622.0568848,3.68627453
622.0610352,3.49019599
622.0610352,3.39215684
622.0651245,3.2352941
622.0692749,3.13725495
622.0733032,3.0392158
622.0733032,2.98039222
622.0775147,2.9607842
622.0814819,3.0392158
622.0856323,3.09803915
622.0856323,3.05882359
622.0896606,3.17647052
622.093689,3.17647052
622.0978394,3.0392158
622.1019898,3.0392158
622.1060791,3.07843137
622.1060791,3.17647052
622.1101685,3.25490189
622.1141968,3.25490189
622.1184692,3.05882359
622.1184692,2.88235283
622.1225586,2.78431368
622.126648,2.78431368
622.1305542,2.86274505
622.1305542,2.90196085
622.1348267,2.98039222
622.138916,2.90196085
622.1430054,2.74509811
622.1469727,2.68627453
622.151062,2.80392146
622.151062,2.74509811
622.1552124,2.62745094
622.1593018,2.62745094
622.1635132,2.58823538
622.1635132,2.62745094
622.1674805,2.66666675
622.1716309,2.72549009
622.1757202,2.7647059
622.1757202,2.62745094
622.1798096,2.62745094
622.1837769,2.66666675
622.1837769,2.58823538
622.1880493,2.54901958
622.1921387,2.58823538
622.196228,2.50980401
622.196228,2.56862736
622.2002564,2.66666675
622.2044678,2.70588231
622.2085571,2.72549009
622.2085571,2.66666675
622.2125855,2.70588231
622.2166748,2.58823538
622.2207642,2.50980401
622.2207642,2.47058821
622.2247925,2.43137264
622.2290649,2.45098042
622.2290649,2.43137264
622.2331543,2.50980401
622.2371826,2.62745094
622.2412109,2.54901958
622.2412109,2.49019599
622.2454224,2.41176462
622.2495117,2.37254906
622.2537231,2.27450991
622.2537231,2.25490189
622.2575684,2.15686274
622.2618408,2.19607854
622.2658081,2.29411769
622.2700195,2.33333325
622.2740479,2.41176462
622.2740479,2.35294127
622.2780762,2.31372547
622.2822876,2.2352941
622.286377,2.31372547
622.286377,2.37254906
622.2904663,2.45098042
622.2944336,2.54901958
622.298584,2.58823538
622.298584,2.66666675
622.3027344,2.70588231
622.3068237,2.72549009
622.3109131,2.82352948
622.3150635,2.80392146
622.3190918,2.82352948
622.3190918,2.80392146
622.3234253,2.80392146
622.3272095,2.90196085
622.331543,2.94117641
622.331543,2.90196085
622.3355713,2.86274505
622.3395996,2.90196085
622.343811,2.88235283
622.343811,2.82352948
622.3477173,2.92156863
622.3518677,3.01960778
622.3518677,2.88235283
622.3560181,2.92156863
622.3600464,2.80392146
622.3640747,2.74509811
622.3640747,2.60784316
622.3681641,2.33333325
622.3723145,2.09803915
622.3765259,1.70588231
622.3765259,1.11764705
622.3804321,0.3137255
622.3848267,0
622.3886719,0
622.3886719,0
622.3928833,0
622.3969727,0.01960784
622.3969727,0.09803922
622.401001,0.4509804
622.4051514,1.15686274
622.4093018,1.82352936
622.4093018,2.41176462
622.4133911,2.82352948
622.4174805,3.19607854
622.4215088,3.56862736
622.4215088,3.90196085
622.4255981,4.05882359
622.4296875,4.09803915
622.4336548,3.90196085
622.4379883,3.84313726
622.4419556,3.64705873
622.4419556,3.49019599
622.4460449,3.45098042
622.4502564,3.43137264
622.4543457,3.39215684
622.4543457,3.33333325
622.458374,3.25490189
622.4624634,3.21568632
622.4666748,3.2352941
622.4666748,3.21568632
622.4705811,3.21568632
622.4747315,3.2352941
622.4788208,3.19607854
622.4829712,3.19607854
622.4871216,3.21568632
622.4871216,3.11764717
622.4911499,3.11764717
622.4951782,3.11764717
622.4993897,3.11764717
622.4993897,3.05882359
622.50354,3.0392158
622.5073853,3
622.5116577,2.84313726
622.5116577,2.7647059
622.515686,2.74509811
622.5200195,2.56862736
622.5200195,2.50980401
622.5238648,2.43137264
622.5279541,2.54901958
622.5321655,2.52941179
622.5321655,2.45098042
622.536438,2.35294127
622.5404053,2.25490189
622.5444336,2.25490189
622.5444336,2.29411769
622.5484619,2.25490189
622.5526123,2.17647052
622.5568237,1.96078432
622.560669,1.88235295
622.5648804,1.82352936
622.5648804,1.72549021
622.5690918,1.72549021
622.5730591,1.66666663
622.5773315,1.62745094
622.5773315,1.52941179
622.5812378,1.31372547
622.5854492,1.2352941
622.5894165,1.19607842
622.5894165,1.13725495
622.5936279,1.15686274
622.5975952,1.09803927
622.6017456,1.05882359
622.605835,0.98039216
622.6099854,0.96078432
622.6099854,1.05882359
622.6139526,1.05882359
622.618042,1.13725495
622.6222534,1.25490201
622.6222534,1.43137252
622.6264038,1.62745094
622.6305542,1.82352936
622.6345215,1.92156863
622.6345215,2.09803915
622.6387329,2.25490189
622.6427612,2.41176462
622.6427612,2.58823538
622.6469116,2.68627453
622.6508789,2.86274505
622.6551514,3.0392158
622.6551514,3.2352941
622.6591187,3.47058821
622.663208,3.60784316
622.6673584,3.72549009
622.6673584,3.80392146
622.6715088,3.92156863
622.6754761,3.9607842
622.6796265,4.09803915
622.6796265,4.07843161
622.6836548,4.11764717
622.6878662,4.09803915
622.6878662,4.11764717
622.6918945,4.13725471
622.6959229,4.05882359
622.7001953,3.94117641
622.7001953,3.90196085
622.7042236,3.82352948
622.708252,3.82352948
622.7123413,3.78431368
622.7123413,3.80392146
622.7164917,3.78431368
622.7206421,3.72549009
622.7246704,3.68627453
622.7286987,3.52941179
622.7328491,3.52941179
622.7328491,3.49019599
622.7369385,3.45098042
622.7409668,3.50980401
622.7450562,3.58823538
622.7450562,3.64705873
622.7493286,3.68627453
622.753418,3.50980401
622.7575073,3.41176462
622.7575073,3.37254906
622.7615967,3.2352941
622.765686,3.27450991
622.7699585,3.31372547
622.7736816,3.29411769
622.777832,3.27450991
622.777832,3.17647052
622.7819824,3.01960778
622.7862549,3.09803915
622.7902832,3.09803915
622.7902832,3.01960778
622.7942505,2.98039222
622.7984619,3.0392158
622.8024292,3.05882359
622.8024292,3.17647052
622.8065796,3.25490189
622.81073,3.2352941
622.81073,3.05882359
622.8147583,3.05882359
622.8188477,3.05882359
622.8231201,3.0392158
622.8231201,2.94117641
622.8270874,2.88235283
622.8311157,2.88235283
622.8353882,2.90196085
622.8353882,2.90196085
622.8392944,3.01960778
622.8435669,3.05882359
622.8474121,3.19607854
622.8516235,3.2352941
622.8557129,3.05882359
622.8557129,3.01960778
622.8598633,2.98039222
622.8638306,3.05882359
622.8679199,2.98039222
622.8679199,3.0392158
622.8721314,3
622.8762817,2.98039222
622.8803101,3.01960778
622.8803101,3.05882359
622.8847656,3.09803915
622.8885498,3.13725495
622.8927002,3.15686274
622.8967285,3
622.9007568,2.92156863
622.9007568,2.7647059
622.9049683,2.7647059
622.9089356,2.7647059
622.913147,2.90196085
622.913147,2.88235283
622.9172363,2.92156863
622.9212036,2.9607842
622.9254761,2.92156863
622.9254761,3.0392158
622.9294434,3.07843137
622.9335938,3.09803915
622.9335938,3.09803915
622.9376831,2.9607842
622.9417725,3
622.9458008,3.0392158
622.9458008,3.0392158
622.9500122,3
622.9540405,3
622.9581909,2.98039222
622.9581909,2.94117641
622.9622192,2.88235283
622.9663086,2.9607842
622.9705811,3.0392158
622.9705811,3.17647052
622.9744263,3.21568632
622.9785767,3.2352941
622.9785767,3.11764717
622.9827271,3.05882359
622.9868774,2.92156863
622.9909668,2.84313726
622.9909668,2.78431368
622.9949341,2.7647059
622.9990234,2.72549009
623.0033569,2.78431368
623.0033569,2.90196085
623.0072632,2.80392146
623.0115356,2.80392146
623.0154419,2.88235283
623.0196533,2.7647059
623.0236816,2.66666675
623.0236816,2.56862736
623.0278931,2.50980401
623.0318604,2.56862736
623.0360107,2.49019599
623.0360107,2.50980401
623.0401001,2.49019599
623.0441895,2.47058821
623.0482178,2.43137264
623.0482178,2.49019599
623.0523071,2.54901958
623.0564575,2.54901958
623.0605469,2.66666675
623.0646362,2.7647059
623.0687866,2.90196085
623.0687866,3
623.072876,3.0392158
623.0769653,2.9607842
623.0811768,2.84313726
623.0811768,2.80392146
623.085144,2.78431368
623.0891724,2.86274505
623.0933838,2.9607842
623.0933838,2.94117641
623.0975342,2.90196085
623.1014404,2.68627453
623.1014404,2.74509811
623.1055908,2.74509811
623.1096802,2.80392146
623.1138306,2.86274505
623.1138306,2.90196085
623.1177979,2.80392146
623.1220093,2.62745094
623.1261597,2.64705873
623.1261597,2.66666675
623.130188,2.70588231
623.1343384,2.66666675
623.1384277,2.68627453
623.1384277,2.62745094
623.1424561,2.25490189
623.1465454,2.0392158
623.1465454,1.74509799
623.1506958,1.37254906
623.1547852,0.66666669
623.1588135,0
623.1588135,0
623.1629639,0
623.1671143,0
623.1712647,0
623.1712647,0.07843138
623.1752319,0.49019608
623.1793823,1.25490201
623.1834106,2.45098042
623.1876221,2.82352948
623.1916504,3.05882359
623.1916504,3.2352941
623.1956787,3.52941179
623.1997681,3.60784316
623.2040405,3.68627453
623.2040405,3.68627453
623.2081299,3.62745094
623.2120361,3.58823538
623.2162476,3.47058821
623.2162476,3.41176462
623.2203369,3.37254906
623.2244263,3.43137264
623.2285156,3.50980401
623.232605,3.60784316
623.2367554,3.58823538
623.2367554,3.54901958
623.2407227,3.49019599
623.244812,3.52941179
623.2489014,3.47058821
623.2489014,3.41176462
623.2531738,3.29411769
623.257019,3.33333325
623.2612305,3.37254906
623.2612305,3.33333325
623.2655029,3.31372547
623.2695923,2.98039222
623.2695923,2.78431368
623.2736206,2.64705873
623.2775879,2.66666675
623.2817383,2.68627453
623.2817383,2.70588231
623.2858276,2.78431368
623.289978,2.72549009
623.2940674,2.68627453
623.2940674,2.64705873
623.2980957,2.66666675
623.3021851,2.52941179
623.3063355,2.58823538
623.3105469,2.56862736
623.3146362,2.54901958
623.3146362,2.49019599
623.3185425,2.54901958
623.3226318,2.47058821
623.3269653,2.52941179
623.3269653,2.27450991
623.3308106,2.17647052
623.335144,1.96078432
623.3391113,1.80392158
623.3391113,1.72549021
623.3432007,1.58823526
623.3473511,1.49019611
623.3514404,1.35294116
623.3555298,1.31372547
623.3596191,1.27450979
623.3596191,1.03921568
623.3637085,0.94117647
623.3677368,0.88235295
623.3719482,0.94117647
623.3719482,0.90196079
623.3760376,0.88235295
623.3800659,0.82352942
623.3843384,0.78431374
623.3843384,0.90196079
623.3882446,1
623.3925171,1.15686274
623.3925171,1.37254906
623.3964233,1.45098042
623.4005737,1.54901958
623.4048462,1.74509799
623.4048462,1.9803921
623.4087524,2.13725495
623.4128418,2.39215684
623.4169312,2.58823538
623.4169312,2.78431368
623.4210205,2.92156863
623.4250488,3.05882359
623.4291992,3.25490189
623.4291992,3.33333325
623.4332886,3.43137264
623.4376221,3.50980401
623.4376221,3.64705873
623.4415283,3.74509811
623.4455566,3.86274505
623.4497681,3.90196085
623.4497681,3.82352948
623.4537964,3.78431368
623.4580078,3.7647059
623.4620361,3.78431368
623.4620361,3.82352948
623.4661865,3.84313726
623.4702759,3.92156863
623.4743652,3.86274505
623.4785156,3.80392146
623.4824829,3.7647059
623.4824829,3.84313726
623.4865723,3.78431368
623.4907227,3.78431368
623.4955444,3.78431368
623.4955444,3.82352948
623.4988403,3.82352948
623.5029907,3.88235283
623.5072632,3.88235283
623.5072632,3.84313726
623.5112305,3.72549009
623.5152588,3.66666675
623.5197754,3.60784316
623.5238037,3.56862736
623.5279541,3.35294127
623.5279541,3.2352941
623.5319214,3.17647052
623.5360718,3.25490189
623.539917,3.31372547
623.539917,3.27450991
623.5441284,3.17647052
623.5480347,3.11764717
623.5522461,3.19607854
623.5522461,3.2352941
623.5563355,3.19607854
623.5603638,3.15686274
623.5603638,3.0392158
623.5645752,3.01960778
623.5684815,3.0392158
623.5726318,3.11764717
623.5726318,3.19607854
623.5767212,3.0392158
623.5808716,2.94117641
623.585022,2.84313726
623.585022,2.86274505
623.5889282,2.90196085
623.5930786,2.92156863
623.597168,3.05882359
623.597168,3
623.6011963,2.9607842
623.6055298,2.84313726
623.6055298,2.82352948
623.609436,2.92156863
623.6135864,3.01960778
623.6177368,3.05882359
623.6177368,3.15686274
623.6218872,3.15686274
623.6258545,3.0392158
623.6299439,3.07843137
623.6299439,2.90196085
623.6340942,2.88235283
623.6381226,2.70588231
623.6422119,2.74509811
623.6463013,2.80392146
623.6504517,2.74509811
623.6504517,2.60784316
623.6546021,2.56862736
623.6585693,2.54901958
623.6627808,2.56862736
623.6627808,2.62745094
623.6668091,2.66666675
623.6710205,2.60784316
623.6749878,2.64705873
623.6749878,2.68627453
623.6790772,2.66666675
623.6832275,2.62745094
623.6875,2.72549009
623.6915283,2.78431368
623.6954346,2.74509811
623.6954346,2.70588231
623.699646,2.64705873
623.7037354,2.64705873
623.7079468,2.66666675
623.7079468,2.74509811
623.711792,2.74509811
623.7160645,2.84313726
623.7200928,2.9607842
623.7200928,2.92156863
623.7241821,2.78431368
623.7283325,2.62745094
623.7283325,2.47058821
623.7324219,2.37254906
623.7365112,2.31372547
623.7405396,2.35294127
623.7405396,2.25490189
623.7445679,2.31372547
623.7487793,2.31372547
623.7529907,2.35294127
623.7529907,2.43137264
623.756958,2.33333325
623.7612305,2.29411769
623.7650147,2.31372547
623.7693481,2.33333325
623.7733154,2.31372547
623.7733154,2.31372547
623.7774048,2.41176462
623.7814941,2.47058821
623.7856445,2.39215684
623.7856445,2.35294127
623.7897949,2.33333325
623.7938232,2.39215684
623.7979736,2.50980401
623.7979736,2.39215684
623.8019409,2.19607854
623.8060913,2.05882359
623.8101807,1.94117641
623.8143921,1.90196073
623.8184204,1.92156863
623.8184204,1.7647059
623.8226318,1.72549021
623.8265381,1.70588231
623.8307495,1.72549021
623.8307495,1.70588231
623.8346558,1.66666663
623.8388672,1.62745094
623.8430786,1.58823526
623.8430786,1.60784316
623.8470459,1.62745094
623.8511963,1.54901958
623.8511963,1.49019611
623.8552246,1.45098042
623.859436,1.49019611
623.8634644,1.49019611
623.8634644,1.54901958
623.8675537,1.64705884
623.871582,1.82352936
623.8757935,1.80392158
623.8757935,1.74509799
623.8798828,1.82352936
623.8839111,1.94117641
623.8880615,2.09803915
623.8880615,2.17647052
623.8922119,2.21568632
623.8963623,2.27450991
623.8963623,2.17647052
623.9003906,1.90196073
623.904541,1.80392158
623.9085693,1.74509799
623.9085693,1.78431368
623.9127197,1.80392158
623.9168091,1.86274505
623.9209595,1.92156863
623.9209595,1.90196073
623.9249268,1.88235295
623.9290161,1.86274505
623.9331665,1.86274505
623.9373169,1.90196073
623.9413452,1.94117641
623.9413452,2.05882359
623.9453735,2.01960778
623.9495239,2
623.9536743,1.90196073
623.9536743,1.88235295
623.9577637,1.78431368
623.961731,1.47058821
623.9658814,1.2352941
623.9658814,0.90196079
623.9699707,0.27450982
623.9740601,0
623.9782105,0
623.9821777,0
623.9864502,0
623.9864502,0
623.9904175,0
623.9945679,0.01960784
623.9985962,0.37254903
623.9985962,0.82352942
624.0028687,1.29411769
624.0067749,1.70588231
624.0109863,1.96078432
624.0109863,2.21568632
624.0149536,2.56862736
624.0192871,2.82352948
624.0192871,2.90196085
624.0231934,2.78431368
624.0272827,2.82352948
624.0313721,2.70588231
624.0313721,2.64705873
624.0355225,2.62745094
624.0396118,2.52941179
624.0437012,2.47058821
624.0437012,2.41176462
624.0477905,2.39215684
624.0518189,2.39215684
624.0559692,2.37254906
624.0601807,2.52941179
624.06427,2.52941179
624.06427,2.49019599
624.0682373,2.37254906
624.0725708,2.29411769
624.076416,2.39215684
624.076416,2.09803915
624.0806274,1.86274505
624.0847168,1.80392158
624.0887451,1.78431368
624.0887451,1.62745094
624.0928955,1.50980389
624.0969238,1.50980389
624.1010742,1.62745094
624.1051025,1.70588231
624.1091919,1.64705884
624.1091919,1.68627453
624.1134033,1.56862748
624.1174316,1.50980389
624.1217041,1.37254906
624.1217041,1.31372547
624.1256104,1.29411769
624.1297607,1.2352941
624.1337891,1.31372547
624.1337891,1.27450979
624.1379395,1.2352941
624.1420288,1.21568632
624.1420288,1.29411769
624.1461792,1.21568632
624.1502075,1.05882359
624.1543579,0.88235295
624.1543579,0.78431374
624.1585083,0.64705884
624.1624146,0.4509804
624.1665649,0.47058824
624.1665649,0.47058824
624.1707153,0.50980395
624.1748657,0.54901963
624.178833,0.41176471
624.178833,0.23529412
624.1829224,0.17647059
624.1871338,0.05882353
624.1871338,0
624.1912842,0
624.1951904,0
624.1995239,0.05882353
624.1995239,0.09803922
624.2035523,0.05882353
624.2077026,0.11764706
624.211731,0.19607843
624.211731,0.3137255
624.2157593,0.4509804
624.2199097,0.58823532
624.223938,1.0196079
624.2280884,1.21568632
624.2320557,1.41176474
624.2320557,1.7647059
624.2362061,1.96078432
624.2402954,2.17647052
624.2444458,2.35294127
624.2444458,2.37254906
624.2484741,2.47058821
624.2526245,2.68627453
624.2566528,2.92156863
624.2566528,3
624.2609253,3.11764717
624.2648926,3.29411769
624.269043,3.39215684
624.2730713,3.19607854
624.2771606,3
624.2771606,3.01960778
624.2814941,3.01960778
624.2855225,3.01960778
624.2894898,3.0392158
624.2894898,3.07843137
624.2935791,3.19607854
624.2977295,3.21568632
624.3018189,3.09803915
624.3018189,3.07843137
624.3058472,3.05882359
624.3099976,2.94117641
624.3099976,2.90196085
624.314148,2.82352948
624.3182373,2.84313726
624.3222656,2.92156863
624.3222656,2.92156863
624.3265381,3.01960778
624.3304443,2.94117641
624.3345337,2.88235283
624.3345337,2.9607842
624.338562,2.74509811
624.3427734,2.72549009
624.3467407,2.68627453
624.3467407,2.70588231
624.3509522,2.68627453
624.3551025,2.72549009
624.3551025,2.66666675
624.3590698,2.50980401
624.3631592,2.41176462
624.3673096,2.33333325
624.3673096,2.37254906
624.3713989,2.31372547
624.3754883,2.35294127
624.3796387,2.35294127
624.3796387,2.19607854
624.383606,2.17647052
624.3878174,2.21568632
624.3919678,2.25490189
624.3959961,2.31372547
624.4000855,2.33333325
624.4000855,2.49019599
624.4042358,2.47058821
624.4082031,2.43137264
624.4124146,2.39215684
624.4124146,2.43137264
624.4164429,2.29411769
624.4205933,2.13725495
624.4246826,2.11764717
624.4246826,2.05882359
624.4287109,2.11764717
624.4328003,2.17647052
624.4369507,2.49019599
624.4411621,2.39215684
624.4451904,2.31372547
624.4451904,2.11764717
624.4492188,2.13725495
624.4533081,2.13725495
624.4575195,2.17647052
624.4575195,2.25490189
624.4615479,2.25490189
624.4655151,2.33333325
624.4698486,2.33333325
624.4698486,2.33333325
624.4737549,2.21568632
624.4779663,2.19607854
624.4779663,2.21568632
624.4819336,2.19607854
624.486084,2.25490189
624.4901733,2.15686274
624.4901733,2.13725495
624.4943237,2.21568632
624.4984131,2.19607854
624.5025635,2.21568632
624.5025635,2.29411769
624.5065918,2.25490189
624.5106201,2.25490189
624.5148315,2.15686274
624.519165,2.15686274
624.5230103,2.07843137
624.5230103,2.15686274
624.5270386,2.17647052
624.531189,2.0392158
624.5353394,2.01960778
624.5353394,1.9803921
624.5394287,1.9803921
624.543457,2.01960778
624.5475464,2.11764717
624.5475464,2.19607854
624.5516968,2.19607854
624.5556641,2.17647052
624.5598145,2.17647052
624.5639648,2.07843137
624.5680542,2.01960778
624.5680542,2.0392158
624.5720825,2.07843137
624.5761719,2.17647052
624.5804443,2.21568632
624.5804443,2.17647052
624.5844727,2.27450991
624.5886231,2.15686274
624.5926514,2.31372547
624.5926514,2.27450991
624.5966797,2.25490189
624.6008301,2.13725495
624.6008301,2.01960778
624.6049805,2
624.6089478,2.07843137
624.6130371,2.11764717
624.6130371,2.17647052
624.6171265,2.19607854
624.6213989,2.19607854
624.6254883,2.17647052
624.6254883,2.2352941
624.6294556,2.27450991
624.6335449,2.17647052
624.6377564,2.11764717
624.6377564,2.09803915
624.6419678,2.13725495
624.645813,2.41176462
624.645813,2.37254906
624.6499634,2.21568632
624.6541138,2.05882359
624.6581421,1.90196073
624.6581421,1.74509799
624.6622315,1.72549021
624.6664429,1.72549021
624.6704712,1.68627453
624.6704712,1.72549021
624.6745606,1.72549021
624.6786499,1.80392158
624.6826782,1.90196073
624.6868286,1.92156863
624.690979,2.01960778
624.690979,2.05882359
624.6950073,2.09803915
624.6991577,2.15686274
624.7032471,2.15686274
624.7032471,2.17647052
624.7073364,2.13725495
624.7114258,2.17647052
624.7155762,2.27450991
624.7155762,2.31372547
624.7197266,2.31372547
624.7236939,2.33333325
624.7277832,2.25490189
624.7319336,2.29411769
624.7359619,2.33333325
624.7359619,2.31372547
624.7400513,2.37254906
624.7442017,2.41176462
624.7483521,2.41176462
624.7483521,2.35294127
624.7525635,2.2352941
624.7564087,2.09803915
624.7606201,2.01960778
624.7606201,1.9803921
624.7647095,1.82352936
624.769043,1.49019611
624.769043,1.17647064
624.7728882,0.80392158
624.7769775,0.33333334
624.7811279,0
624.7811279,0
624.7852173,0
624.7891846,0
624.793457,0
624.793457,0.05882353
624.7974243,0.41176471
624.8015747,0.92156863
624.8056641,1.64705884
624.8056641,2.37254906
624.8097534,2.80392146
624.8138428,3.11764717
624.8138428,3.19607854
624.8179321,3.45098042
624.8220825,3.72549009
624.8260498,3.82352948
624.8260498,3.7647059
624.8302002,3.62745094
624.8342896,3.39215684
624.838501,3.21568632
624.838501,3.13725495
624.8425903,2.98039222
624.8465576,2.9607842
624.850708,2.98039222
624.8549194,2.90196085
624.8589478,2.86274505
624.8589478,2.86274505
624.8629761,2.78431368
624.8670654,2.82352948
624.8712769,2.84313726
624.8712769,2.84313726
624.8753662,2.88235283
624.8794556,2.86274505
624.8834229,2.80392146
624.8834229,2.86274505
624.8875732,2.94117641
624.8917236,2.88235283
624.895752,2.54901958
624.8999023,2.45098042
624.9040527,2.58823538
624.9040527,2.56862736
624.9080811,2.52941179
624.9119873,2.47058821
624.9162598,2.54901958
624.9162598,2.47058821
624.9203491,2.29411769
624.9244385,2.25490189
624.9285889,2.19607854
624.9285889,2.09803915
624.9325562,2.13725495
624.9367676,2.09803915
624.9367676,2.05882359
624.9408569,2.0392158
624.9448853,1.92156863
624.9492188,1.88235295
624.9492188,1.94117641
624.953125,1.88235295
624.9573364,1.74509799
624.9613037,1.58823526
624.9613037,1.52941179
624.9655151,1.56862748
624.9696045,1.45098042
624.9736328,1.39215684
624.9777222,1.35294116
624.9818115,1.33333337
624.9818115,1.21568632
624.9858398,1.11764705
624.9899292,1
624.9940796,0.88235295
624.9940796,0.86274511
624.998169,0.94117647
625.0024414,0.90196079
625.0064087,0.94117647
625.0064087,0.96078432
625.0104981,1.0196079
625.0145264,0.98039216
625.0188599,1.13725495
625.0227051,1.33333337
625.0267944,1.45098042
625.0267944,1.45098042
625.0308838,1.66666663
625.0351563,1.90196073
625.0391846,2.11764717
625.0391846,2.21568632
625.0432129,2.50980401
625.0473023,2.64705873
625.0513916,2.84313726
625.0513916,3
625.055542,3.17647052
625.0595093,3.39215684
625.0595093,3.58823538
625.0637817,3.72549009
625.0678711,3.86274505
625.0718994,3.92156863
625.0718994,3.90196085
625.0759888,3.7647059
625.0800781,3.68627453
625.0842285,3.66666675
625.0842285,3.7647059
625.0883179,3.92156863
625.0924683,3.92156863
625.0964356,3.92156863
625.0964356,3.92156863
625.1005249,3.82352948
625.1047363,3.68627453
625.1047363,3.62745094
625.1088257,3.70588231
625.112793,3.70588231
625.1169434,3.54901958
625.1169434,3.45098042
625.1210938,3.39215684
625.1252441,3.41176462
625.1293945,3.45098042
625.1293945,3.43137264
625.1334229,3.45098042
625.1374512,3.37254906
625.1416016,3.47058821
625.145752,3.54901958
625.1496582,3.50980401
625.1496582,3.43137264
625.1538696,3.35294127
625.157898,3.35294127
625.1620483,3.35294127
625.1620483,3.31372547
625.1661377,3.33333325
625.1702271,3.29411769
625.1744385,3.33333325
625.1744385,3.27450991
625.1784058,3.19607854
625.1825562,3.11764717
625.1865234,3.01960778
625.1907349,2.86274505
625.1948242,2.88235283
625.1948242,2.94117641
625.1990356,2.94117641
625.2030029,2.86274505
625.2070923,2.84313726
625.2070923,2.86274505
625.2111816,2.86274505
625.21521,2.9607842
625.2195435,3.01960778
625.2195435,3.05882359
625.2234497,3
625.2276001,2.94117641
625.2276001,3
625.2316895,3
625.2358398,2.94117641
625.2398682,3.05882359
625.2398682,3.11764717
625.2439575,3.05882359
625.2479858,2.98039222
625.2523193,3.0392158
625.2523193,3.05882359
625.2562256,3.15686274
625.260376,3.09803915
625.2644653,3.07843137
625.2685547,3.0392158
625.2727661,3
625.2727661,2.86274505
625.2766724,2.90196085
625.2808838,2.86274505
625.2849731,2.88235283
625.2849731,2.88235283
625.2890015,2.94117641
625.2930908,3
625.2971802,3.13725495
625.2971802,3.05882359
625.3012695,2.82352948
625.305481,2.80392146
625.3093872,3.01960778
625.3135986,3.11764717
625.317749,3.07843137
625.317749,3.05882359
625.3217773,3.05882359
625.3259888,3.09803915
625.329895,3.01960778
625.329895,3.0392158
625.3341675,3.01960778
625.3382568,3.0392158
625.3423462,3.19607854
625.3423462,3.27450991
625.3464356,3.29411769
625.3504639,3.11764717
625.3504639,3.0392158
625.3546143,2.9607842
625.3587036,2.86274505
625.362793,2.86274505
625.362793,2.86274505
625.3668823,2.80392146
625.3709106,2.92156863
625.375061,2.94117641
625.375061,3.01960778
625.3792725,3.07843137
625.3831787,2.9607842
625.3875122,2.86274505
625.3875122,2.86274505
625.3914795,2.88235283
625.3956909,2.92156863
625.3956909,3
625.3995361,2.9607842
625.4037476,2.86274505
625.4078369,2.82352948
625.4078369,2.82352948
625.4119263,2.78431368
625.4160767,2.68627453
625.420105,2.72549009
625.420105,2.80392146
625.4241943,2.82352948
625.4282837,2.78431368
625.4324341,2.68627453
625.4364014,2.60784316
625.4406738,2.35294127
625.4406738,2.21568632
625.4446411,2.25490189
625.4487915,2.21568632
625.4529419,2.27450991
625.4529419,2.50980401
625.4569702,2.60784316
625.4609985,2.54901958
625.4651489,2.66666675
625.4651489,2.62745094
625.4694824,2.70588231
625.4734497,2.64705873
625.477478,2.70588231
625.4815674,2.68627453
625.4857178,2.80392146
625.4857178,2.94117641
625.4896851,2.9607842
625.4937744,2.9607842
625.4979248,2.98039222
625.4979248,2.92156863
625.5020752,2.84313726
625.5061035,2.86274505
625.5101318,2.90196085
625.5101318,2.98039222
625.5143433,3
625.5186157,3.05882359
625.5186157,3
625.522644,3.01960778
625.5265503,2.88235283
625.5307617,2.70588231
625.5307617,2.52941179
625.5348511,2.49019599
625.5390015,2.45098042
625.5430908,2.39215684
625.5430908,2.15686274
625.5470581,1.90196073
625.5512085,1.52941179
625.5552979,1.05882359
625.5552979,0.56862748
625.5595093,0.01960784
625.5634766,0
625.5634766,0
625.5675659,0
625.5716553,0.09803922
625.5759277,0.50980395
625.5759277,0.88235295
625.579834,1.33333337
625.5839233,1.90196073
625.5880737,2.62745094
625.5880737,3.21568632
625.5922241,3.45098042
625.5963135,3.66666675
625.6004028,4.01960802
625.6044922,4.13725471
625.6085205,4.15686274
625.6085205,4
625.6126709,3.72549009
625.6166992,3.49019599
625.6207886,3.21568632
625.6207886,3.07843137
625.625,3
625.6291504,2.90196085
625.6331787,2.70588231
625.6331787,2.64705873
625.637146,2.66666675
625.6412354,2.62745094
625.6455078,2.74509811
625.6495972,2.82352948
625.6535645,2.74509811
625.6535645,2.72549009
625.6576538,2.74509811
625.6618042,2.68627453
625.6658936,2.64705873
625.6658936,2.64705873
625.6699829,2.60784316
625.6740723,2.60784316
625.6781616,2.66666675
625.6781616,2.58823538
625.682312,2.60784316
625.6864624,2.74509811
625.6864624,2.78431368
625.6904907,2.80392146
625.694519,2.66666675
625.6987305,2.45098042
625.6987305,2.31372547
625.7029419,2.41176462
625.7068481,2.2352941
625.7108765,2.21568632
625.7108765,2.09803915
625.7150269,2.07843137
625.7193604,1.96078432
625.7231445,1.68627453
625.727478,1.62745094
625.7314453,1.56862748
625.7314453,1.45098042
625.7355957,1.41176474
625.739563,1.37254906
625.7436523,1.31372547
625.7436523,1.31372547
625.7477417,1.21568632
625.7520752,1.17647064
625.7562256,1.05882359
625.7562256,1.09803927
625.7601929,0.94117647
625.7643433,0.84313726
625.7685547,0.90196079
625.7723999,0.96078432
625.7765503,0.98039216
625.7765503,0.98039216
625.7805786,0.96078432
625.784729,0.84313726
625.7888184,0.7647059
625.7888184,0.68627453
625.7929077,0.72549021
625.796936,0.78431374
625.8011475,0.96078432
625.8011475,0.98039216
625.8051758,0.98039216
625.8092651,1.07843137
625.8092651,1.31372547
625.8134766,1.52941179
625.8174439,1.82352936
625.8215332,1.96078432
625.8215332,2.15686274
625.8258667,2.35294127
625.8296509,2.64705873
625.8339233,2.88235283
625.8339233,3.09803915
625.8378906,3.25490189
625.842041,3.27450991
625.8461914,3.33333325
625.8461914,3.39215684
625.8501587,3.62745094
625.8544922,3.72549009
625.8544922,3.80392146
625.8583984,3.92156863
625.8625488,3.84313726
625.8666992,3.72549009
625.8666992,3.64705873
625.8706665,3.66666675
625.8748169,3.68627453
625.8790283,3.58823538
625.8790283,3.37254906
625.8828735,3.35294127
625.887146,3.33333325
625.8911133,3.15686274
625.8953857,3.13725495
625.8994141,3.11764717
625.8994141,3.2352941
625.9034424,3.2352941
625.9075317,3.25490189
625.9116211,3.31372547
625.9116211,3.29411769
625.9157715,3.29411769
625.9197998,3.2352941
625.9239502,3.15686274
625.9239502,3.25490189
625.9279785,3.27450991
625.9321899,3.31372547
625.9364624,3.25490189
625.9404907,3.19607854
625.944397,3.13725495
625.944397,2.90196085
625.9485474,2.80392146
625.9526978,2.86274505
625.9568481,3
625.9568481,2.88235283
625.9607544,2.86274505
625.9649048,2.64705873
625.9692383,2.45098042
625.9692383,2.45098042
625.9731445,2.47058821
625.9771729,2.52941179
625.9771729,2.56862736
625.9813232,2.56862736
625.9854126,2.54901958
625.989624,2.58823538
625.989624,2.72549009
625.9935303,2.64705873
625.9976196,2.60784316
626.00177,2.56862736
626.00177,2.56862736
626.0059204,2.68627453
626.0101929,2.64705873
626.0140381,2.86274505
626.0182495,2.88235283
626.0223389,2.84313726
626.0223389,2.88235283
626.0264282,2.98039222
626.0305176,2.86274505
626.0346069,2.88235283
626.0346069,2.80392146
626.0386963,2.82352948
626.0427856,2.80392146
626.046936,2.70588231
626.046936,2.54901958
626.0509033,2.50980401
626.0550537,2.56862736
626.0591431,2.58823538
626.0631714,2.52941179
626.0675049,2.52941179
626.0675049,2.39215684
626.0714111,2.35294127
626.0756226,2.43137264
626.0796509,2.41176462
626.0796509,2.47058821
626.0838013,2.52941179
626.0878906,2.50980401
626.091919,2.64705873
626.091919,2.64705873
626.0960693,2.64705873
626.1001587,2.56862736
626.1042481,2.62745094
626.1082764,2.64705873
626.1124268,2.66666675
626.1124268,2.64705873
626.1165772,2.70588231
626.1206665,2.70588231
626.1246948,2.58823538
626.1246948,2.52941179
626.1287842,2.35294127
626.1329346,2.19607854
626.137085,2.17647052
626.137085,2.27450991
626.1410523,2.31372547
626.1452026,2.29411769
626.1452026,2.35294127
626.149231,2.39215684
626.1535645,2.17647052
626.1574097,2.15686274
626.1574097,2.13725495
626.1615601,2.19607854
626.1657715,2.27450991
626.1698608,2.2352941
626.1698608,2.29411769
626.1738281,2.2352941
626.1779175,2.33333325
626.1820679,2.09803915
626.1862183,2.05882359
626.1903687,2.07843137
626.1903687,2.11764717
626.194397,2.13725495
626.1984863,2.31372547
626.2025757,2.2352941
626.2025757,2.27450991
626.206604,2.05882359
626.2106323,2.01960778
626.2147827,2.09803915
626.2147827,2.15686274
626.2190552,2.27450991
626.2230835,2.35294127
626.2270508,2.43137264
626.2311401,2.49019599
626.2352905,2.47058821
626.2352905,2.45098042
626.2394409,2.39215684
626.2434082,2.39215684
626.2474976,2.35294127
626.2474976,2.47058821
626.25177,2.56862736
626.2558594,2.60784316
626.2600708,2.74509811
626.2600708,2.64705873
626.2639771,2.66666675
626.2681274,2.62745094
626.2681274,2.58823538
626.2722168,2.70588231
626.2763062,2.66666675
626.2803955,2.70588231
626.2803955,2.66666675
626.2844238,2.68627453
626.2885742,2.60784316
626.2926636,2.52941179
626.2926636,2.21568632
626.2966919,1.86274505
626.3007813,1.52941179
626.3049316,1.09803927
626.3049316,0.70588237
626.309021,0.17647059
626.3131714,0
626.3131714,0
626.3171997,0
626.3212891,0
626.3255005,0
626.3255005,0.25490198
626.3295288,0.64705884
626.3335571,1.21568632
626.3377075,1.72549021
626.3377075,2.29411769
626.3417969,2.60784316
626.3460083,2.9607842
626.3500366,3.56862736
626.3540649,3.66666675
626.3581543,3.72549009
626.3581543,3.54901958
626.3623047,3.47058821
626.3664551,3.43137264
626.3705444,3.31372547
626.3705444,3.17647052
626.3746338,3.05882359
626.3786621,2.88235283
626.3828125,2.74509811
626.3828125,2.60784316
626.3868408,2.62745094
626.3908691,2.64705873
626.3952026,2.54901958
626.3991699,2.52941179
626.4033814,2.50980401
626.4033814,2.50980401
626.4074707,2.52941179
626.411377,2.49019599
626.4155273,2.41176462
626.4155273,2.41176462
626.4197388,2.41176462
626.4237061,2.31372547
626.4277954,2.31372547
626.4277954,2.33333325
626.4318848,2.50980401
626.4360352,2.35294127
626.4360352,2.19607854
626.4403076,2.31372547
626.4441528,2.19607854
626.4484253,2.01960778
626.4484253,1.94117641
626.4524536,1.90196073
626.456604,1.86274505
626.4606934,1.84313726
626.4606934,1.78431368
626.4646606,1.88235295
626.4689941,1.78431368
626.4729614,1.72549021
626.4769898,1.66666663
626.4810181,1.54901958
626.4810181,1.50980389
626.4851685,1.47058821
626.4892578,1.31372547
626.4933472,1.27450979
626.4933472,1.2352941
626.4973755,1.29411769
626.5015259,1.2352941
626.5056763,1.09803927
626.5056763,0.92156863
626.5098267,0.7647059
626.513916,0.64705884
626.5179443,0.39215687
626.5220337,0.37254903
626.5261841,0.29411766
626.5261841,0.33333334
626.5302734,0.4509804
626.5344849,0.37254903
626.5383911,0.41176471
626.5383911,0.43137255
626.5425415,0.35294119
626.5467529,0.43137255
626.5508423,0.627451
626.5508423,0.86274511
626.5548706,1.13725495
626.55896,1.43137252
626.55896,1.56862748
626.5631104,1.68627453
626.5670776,1.80392158
626.571167,2.0392158
626.571167,2.17647052
626.5753784,2.35294127
626.5794678,2.45098042
626.5836182,2.60784316
626.5836182,2.86274505
626.5875855,3.01960778
626.5916748,3.25490189
626.5958252,3.47058821
626.5958252,3.62745094
626.5999146,3.60784316
626.604126,3.41176462
626.604126,3.41176462
626.6081543,3.50980401
626.6122437,3.56862736
626.616333,3.56862736
626.616333,3.66666675
626.6204834,3.60784316
626.6245117,3.56862736
626.6286621,3.60784316
626.6286621,3.66666675
626.6326904,3.70588231
626.6367798,3.74509811
626.6408691,3.62745094
626.6450195,3.56862736
626.6490479,3.49019599
626.6490479,3.50980401
626.6532593,3.52941179
626.6571655,3.41176462
626.661438,3.37254906
626.661438,3.39215684
626.6654053,3.45098042
626.6696167,3.50980401
626.6737671,3.43137264
626.6737671,3.60784316
626.6776733,3.62745094
626.6817627,3.62745094
626.6860352,3.31372547
626.6900635,3.17647052
626.6941528,3.13725495
626.6941528,2.98039222
626.6983032,2.9607842
626.7023315,2.9607842
626.7064819,3
626.7064819,2.94117641
626.7104492,3
626.7145996,3
626.71875,2.92156863
626.71875,2.86274505
626.7227173,2.82352948
626.7269898,2.90196085
626.7269898,2.92156863
626.730896,2.88235283
626.7350464,2.84313726
626.7391968,2.94117641
626.7391968,2.9607842
626.7432861,2.98039222
626.7475586,3.0392158
626.7515259,3.05882359
626.7515259,2.9607842
626.7555542,2.98039222
626.7597656,2.92156863
626.763916,2.78431368
626.763916,2.82352948
626.7678223,2.78431368
626.7720947,2.72549009
626.7720947,2.70588231
626.776001,2.70588231
626.7802124,2.58823538
626.7841797,2.58823538
626.7841797,2.72549009
626.7884522,2.82352948
626.7924194,2.80392146
626.7965698,2.86274505
626.7965698,3.05882359
626.8005371,2.74509811
626.8046875,2.72549009
626.8087769,2.70588231
626.8129883,2.88235283
626.8170166,2.80392146
626.8170166,2.74509811
626.8210449,2.84313726
626.8251953,2.98039222
626.8294678,2.9607842
626.8294678,2.90196085
626.8334351,2.80392146
626.8374023,2.86274505
626.8415527,2.94117641
626.8415527,2.9607842
626.8456421,2.74509811
626.8498535,2.62745094
626.8538208,2.50980401
626.8579102,2.50980401
626.8620606,2.49019599
626.8620606,2.60784316
626.8662109,2.64705873
626.8703003,2.68627453
626.8745117,2.68627453
626.8745117,2.60784316
626.878479,2.58823538
626.8825073,2.54901958
626.8867188,2.56862736
626.8867188,2.66666675
626.890625,2.68627453
626.8949585,2.60784316
626.8949585,2.64705873
626.8989868,2.58823538
626.9030762,2.58823538
626.9071655,2.60784316
626.9071655,2.47058821
626.9111939,2.43137264
626.9154663,2.41176462
626.9194946,2.37254906
626.9194946,2.27450991
626.923523,2.33333325
626.9275513,2.2352941
626.9317017,2.13725495
626.9359741,2.21568632
626.9400024,2.21568632
626.9400024,2.19607854
626.9439087,2.27450991
626.9481201,2.27450991
626.9522095,2.41176462
626.9522095,2.56862736
626.9563599,2.64705873
626.9603882,2.62745094
626.9643555,2.66666675
626.9643555,2.70588231
626.968689,2.70588231
626.9726563,2.88235283
626.9768066,3
626.9807739,2.90196085
626.9849243,2.92156863
626.9849243,2.98039222
626.9890137,2.86274505
626.9931641,2.86274505
626.9972534,2.84313726
626.9972534,2.90196085
627.0015259,2.94117641
627.0054932,2.86274505
627.0096436,3
627.0096436,3.11764717
627.0137329,3.11764717
627.0180054,3.11764717
627.0180054,2.78431368
627.0218506,2.49019599
627.0259399,2.2352941
627.0300293,1.84313726
627.0300293,1.47058821
627.0339966,1
627.038269,0.52941179
627.0424194,0
627.0424194,0
627.0463867,0
627.0505371,0
627.0545654,0
627.0545654,0
627.0586548,0.17647059
627.0627441,0.627451
627.0627441,1.33333337
627.0669556,1.90196073
627.0709839,2.43137264
627.0750732,2.92156863
627.0750732,3.2352941
627.0791626,3.68627453
627.083374,3.78431368
627.0874634,3.78431368
627.0874634,3.74509811
627.0913696,3.72549009
627.0957031,3.64705873
627.0996094,3.47058821
627.1038208,3.33333325
627.1077881,3.2352941
627.1077881,3.17647052
627.1118774,3.11764717
627.1160278,3.09803915
627.1203003,3.11764717
627.1203003,3
627.1241455,2.94117641
627.128418,2.86274505
627.1323853,2.94117641
627.1323853,3.0392158
627.1366577,3.05882359
627.140564,3.01960778
627.1447754,2.88235283
627.1487427,2.88235283
627.1529541,2.86274505
627.1529541,2.86274505
627.1569824,2.82352948
627.1610107,2.58823538
627.1651611,2.47058821
627.1651611,2.54901958
627.1693115,2.54901958
627.1734619,2.47058821
627.1775513,2.47058821
627.1775513,2.60784316
627.1815186,2.56862736
627.185791,2.43137264
627.185791,2.15686274
627.1898193,2.07843137
627.1939087,2.01960778
627.1979981,1.9803921
627.1979981,1.90196073
627.2021484,1.84313726
627.2062988,1.78431368
627.2102661,1.70588231
627.2102661,1.74509799
627.2144165,1.72549021
627.2185059,1.66666663
627.2225342,1.43137252
627.2266235,1.35294116
627.230835,1.39215684
627.230835,1.37254906
627.2348023,1.2352941
627.2388916,1.15686274
627.243042,0.90196079
627.243042,0.84313726
627.2471314,0.82352942
627.2512207,0.78431374
627.2555542,0.72549021
627.2555542,0.68627453
627.2594605,0.70588237
627.2636108,0.80392158
627.2676392,1
627.2717896,1.13725495
627.2757568,1.21568632
627.2757568,1.21568632
627.2799683,1.05882359
627.2839966,1.03921568
627.2880249,1.19607842
627.2880249,1.45098042
627.2921753,1.62745094
627.2962647,1.78431368
627.300415,2.07843137
627.300415,2.21568632
627.3044434,2.45098042
627.3085327,2.68627453
627.3127441,3.19607854
627.3167725,3.35294127
627.3208618,3.50980401
627.3208618,3.64705873
627.3249512,3.68627453
627.3290405,3.74509811
627.3331909,3.80392146
627.3331909,3.82352948
627.3373413,3.84313726
627.3414307,3.84313726
627.345398,3.86274505
627.345398,3.9607842
627.3495483,4.07843161
627.3537598,4.03921556
627.3537598,4.11764717
627.357666,4.09803915
627.3617554,4.03921556
627.3659058,3.80392146
627.3659058,3.66666675
627.3700562,3.50980401
627.3741455,3.45098042
627.3782349,3.47058821
627.3782349,3.37254906
627.3823853,3.33333325
627.3864746,3.45098042
627.3905029,3.41176462
627.3945923,3.50980401
627.3986206,3.56862736
627.3986206,3.49019599
627.402832,3.43137264
627.4069824,3.37254906
627.4110107,3.35294127
627.4110107,3.35294127
627.4151001,3.27450991
627.4191895,3.13725495
627.4232788,3.0392158
627.4232788,3.05882359
627.4274292,3.09803915
627.4313965,3.15686274
627.4355469,3.19607854
627.4397583,3.2352941
627.4437866,3.19607854
627.4437866,3.15686274
627.4479981,3.05882359
627.4520264,3.11764717
627.4561157,3.11764717
627.4561157,2.98039222
627.460144,2.86274505
627.4642944,2.84313726
627.4685059,2.90196085
627.4685059,2.9607842
627.4723511,2.90196085
627.4765625,2.90196085
627.4765625,2.80392146
627.4806519,2.70588231
627.4846191,2.66666675
627.4888306,2.54901958
627.4888306,2.54901958
627.4929199,2.64705873
627.4970093,2.66666675
627.5011597,2.68627453
627.5011597,2.66666675
627.505188,2.78431368
627.5092773,2.82352948
627.5134888,2.84313726
627.5134888,2.86274505
627.5175171,2.7647059
627.5216675,2.70588231
627.5216675,2.72549009
627.5256958,2.82352948
627.5297852,2.90196085
627.5339356,2.9607842
627.5339356,3.11764717
627.5379639,3.01960778
627.5420532,2.86274505
627.5462647,2.70588231
627.5462647,2.58823538
627.5502319,2.60784316
627.5544434,2.56862736
627.5584106,2.56862736
627.5625,2.47058821
627.5667725,2.50980401
627.5667725,2.49019599
627.5707398,2.52941179
627.5748291,2.50980401
627.5789185,2.58823538
627.5789185,2.58823538
627.5830689,2.49019599
627.5872192,2.50980401
627.5913696,2.54901958
627.5913696,2.56862736
627.59552,2.62745094
627.5994873,2.62745094
627.6036377,2.50980401
627.607666,2.41176462
627.6116943,2.45098042
627.6116943,2.58823538
627.6157837,2.62745094
627.6199341,2.47058821
627.6240845,2.41176462
627.6240845,2.35294127
627.6281128,2.39215684
627.6322022,2.62745094
627.6365967,2.49019599
627.6365967,2.47058821
627.6405029,2.43137264
627.6446533,2.2352941
627.6446533,2.13725495
627.6486206,2.09803915
627.65271,2.17647052
627.6569214,2.27450991
627.6569214,2.41176462
627.6608887,2.50980401
627.664917,2.60784316
627.6691284,2.62745094
627.6691284,2.66666675
627.6731567,2.68627453
627.6772461,2.78431368
627.6813965,2.78431368
627.6853638,2.78431368
627.6896362,2.72549009
627.6896362,2.82352948
627.6936646,2.78431368
627.6976929,2.92156863
627.7019043,2.94117641
627.7019043,2.92156863
627.7058716,2.9607842
627.710022,3.07843137
627.7141113,3.0392158
627.7141113,2.88235283
627.7183228,2.86274505
627.7225342,2.7647059
627.7263794,2.60784316
627.7305908,2.39215684
627.7346191,2.0392158
627.7346191,1.78431368
627.7387085,1.39215684
627.7427979,0.7647059
627.7468872,0.33333334
627.7468872,0
627.7510376,0
627.755127,0
627.7591553,0
627.7591553,0
627.7634277,0
627.7674561,0.15686275
627.7674561,0.72549021
627.7714844,1.43137252
627.7755127,2.0392158
627.7796631,2.52941179
627.7796631,2.92156863
627.7838745,3.21568632
627.7878418,3.58823538
627.7919312,3.98039222
627.7919312,3.98039222
627.7960205,3.98039222
627.8002319,3.66666675
627.8043823,3.45098042
627.8043823,3.31372547
627.8084717,3.31372547
627.812439,3.37254906
627.812439,3.2352941
627.8165894,2.9607842
627.8206177,2.90196085
627.8248901,2.84313726
627.8248901,2.84313726
627.8289185,2.84313726
627.8330078,2.90196085
627.8370972,2.94117641
627.8370972,2.86274505
627.8411865,2.90196085
627.8451538,2.82352948
627.8494263,2.82352948
627.8533936,2.82352948
627.857544,2.7647059
627.857544,2.82352948
627.8615112,2.78431368
627.8656616,2.78431368
627.869812,2.78431368
627.869812,2.80392146
627.8739014,2.68627453
627.8779907,2.60784316
627.882019,2.58823538
627.882019,2.64705873
627.8862915,2.74509811
627.8901978,2.52941179
627.8945313,2.21568632
627.8983765,2.07843137
627.90271,1.94117641
627.90271,1.92156863
627.9066773,1.88235295
627.9107666,1.94117641
627.914978,1.90196073
627.914978,1.92156863
627.9189453,1.86274505
627.9230347,1.84313726
627.927124,1.64705884
627.927124,1.50980389
627.9312744,1.54901958
627.9354248,1.33333337
627.9354248,1.29411769
627.9394531,1.19607842
627.9435425,1.05882359
627.9476929,1
627.9476929,0.98039216
627.9517212,1
627.9558716,0.94117647
627.9599609,0.94117647
627.9599609,0.92156863
627.9640503,0.82352942
627.9683838,0.84313726
627.972229,0.98039216
627.972229,1.03921568
627.9762573,1.07843137
627.9804077,1.07843137
627.9804077,1.03921568
627.9844971,1.0196079
627.9885254,0.98039216
627.9926148,1.03921568
627.9926148,1.27450979
627.9967651,1.54901958
628.0009766,1.74509799
628.005127,1.9803921
628.005127,2.2352941
628.0090942,2.45098042
628.0132446,2.72549009
628.0172119,2.98039222
628.0215454,3.13725495
628.0253296,3.25490189
628.0253296,3.37254906
628.029541,3.52941179
628.0336304,3.62745094
628.0378418,3.72549009
628.0378418,3.88235283
628.0418091,3.90196085
628.0458984,3.9607842
628.0500488,3.92156863
628.0500488,3.88235283
628.0541992,3.80392146
628.0582275,3.82352948
628.0625,3.84313726
628.0664063,3.84313726
628.0704956,3.82352948
628.0704956,3.70588231
628.0747681,3.62745094
628.0787354,3.68627453
628.0827637,3.58823538
628.0827637,3.47058821
628.0869751,3.39215684
628.0910645,3.39215684
628.0951538,3.39215684
628.0951538,3.50980401
628.0991211,3.49019599
628.1034546,3.41176462
628.1034546,3.43137264
628.1074219,3.33333325
628.1113892,3.31372547
628.1155396,3.25490189
628.1155396,3.27450991
628.1196289,3.17647052
628.1238403,3.29411769
628.1279297,3.17647052
628.1279297,3.13725495
628.131897,3.19607854
628.1361084,3.19607854
628.1401367,3.25490189
628.1442871,3.17647052
628.1484375,3.13725495
628.1484375,3.17647052
628.1525269,3.27450991
628.1566162,3.27450991
628.1607666,3.17647052
628.1607666,3.07843137
628.1647949,2.90196085
628.1688232,2.9607842
628.1729126,2.9607842
628.1729126,2.70588231
628.177124,2.64705873
628.1812134,2.68627453
628.1850586,2.78431368
628.1895142,2.74509811
628.1934815,2.74509811
628.1934815,2.84313726
628.1975098,2.92156863
628.2015991,2.86274505
628.2058106,2.86274505
628.2058106,2.82352948
628.2098389,2.86274505
628.2138672,2.72549009
628.2179565,2.66666675
628.2179565,2.70588231
628.222168,2.7647059
628.2261353,2.78431368
628.2261353,2.84313726
628.2302246,2.94117641
628.234436,3.0392158
628.2385864,3.0392158
628.2385864,2.98039222
628.2424927,3.05882359
628.2467041,2.98039222
628.2507324,2.86274505
628.2507324,2.9607842
628.2549439,2.92156863
628.2588501,2.90196085
628.2630005,2.78431368
628.2630005,2.82352948
628.267334,2.80392146
628.2713623,2.72549009
628.2713623,2.64705873
628.2755127,2.60784316
628.27948,2.62745094
628.2835693,2.60784316
628.2835693,2.66666675
628.2877197,2.68627453
628.2917481,2.64705873
628.2957764,2.58823538
628.2957764,2.56862736
628.2999268,2.52941179
628.3040161,2.56862736
628.3081055,2.49019599
628.3121948,2.47058821
628.3164673,2.58823538
628.3164673,2.66666675
628.3203735,2.52941179
628.324585,2.54901958
628.3286743,2.54901958
628.3286743,2.47058821
628.3327637,2.41176462
628.336792,2.39215684
628.3408814,2.25490189
628.3408814,2.15686274
628.3449707,2.07843137
628.3491211,2.05882359
628.3532105,2.17647052
628.3572998,2.31372547
628.3613892,2.19607854
628.3613892,2.11764717
628.3654785,2.29411769
628.3695068,2.33333325
628.3735962,2.41176462
628.3735962,2.47058821
628.3778687,2.52941179
628.381897,2.52941179
628.3859863,2.54901958
628.3859863,2.56862736
628.3900147,2.74509811
628.3942871,2.80392146
628.3942871,2.80392146
628.3982544,2.80392146
628.4025879,2.74509811
628.4063721,2.78431368
628.4063721,2.86274505
628.4105225,3.0392158
628.4146729,2.90196085
628.4188232,2.84313726
628.4188232,2.66666675
628.4227905,2.66666675
628.4269409,2.66666675
628.4310303,2.84313726
628.4352417,2.74509811
628.439209,2.66666675
628.439209,2.45098042
628.4432983,2.35294127
628.4475708,2.19607854
628.4515381,2.09803915
628.4515381,1.86274505
628.4555664,1.31372547
628.4596558,0.7647059
628.4637451,0.07843138
628.4637451,0
628.4679565,0
628.4720459,0
628.4760742,0
628.4801636,0.07843138
628.484314,0.43137255
628.484314,1
628.4884644,1.66666663
628.4923706,2.31372547
628.496521,2.7647059
628.496521,3.25490189
628.5006714,3.45098042
628.5047607,3.64705873
628.5087891,3.82352948
628.5087891,3.84313726
628.5129395,3.70588231
628.5169678,3.60784316
628.5213013,3.29411769
628.5252075,3.01960778
628.529419,3
628.529419,3.05882359
628.5333862,3.09803915
628.5375366,3.05882359
628.5417481,2.90196085
628.5417481,2.7647059
628.5457153,2.64705873
628.5498657,2.72549009
628.5540161,2.82352948
628.5540161,2.72549009
628.5581055,2.68627453
628.5622559,2.64705873
628.5622559,2.66666675
628.5662231,2.64705873
628.5704346,2.68627453
628.5744019,2.74509811
628.5744019,2.68627453
628.5785523,2.60784316
628.5826416,2.52941179
628.586853,2.50980401
628.586853,2.52941179
628.5908203,2.52941179
628.5949097,2.41176462
628.598999,2.43137264
628.6030273,2.31372547
628.6072388,2.19607854
628.6072388,2.09803915
628.6112671,2.09803915
628.6153565,2.01960778
628.6193848,2
628.6193848,1.94117641
628.6235962,1.86274505
628.6277466,1.82352936
628.6318359,1.78431368
628.6318359,1.74509799
628.6359863,1.70588231
628.6398926,1.66666663
628.644104,1.27450979
628.6481323,1.19607842
628.6525269,1.2352941
628.6525269,1.19607842
628.6564331,1.07843137
628.6604004,0.96078432
628.6645508,0.92156863
628.6645508,0.88235295
628.6688232,0.74509805
628.6726074,0.72549021
628.6767578,0.74509805
628.6767578,0.70588237
628.6809082,0.58823532
628.6852417,0.50980395
628.6852417,0.56862748
628.6890869,0.627451
628.6931152,0.56862748
628.6975098,0.66666669
628.6975098,0.82352942
628.701416,0.98039216
628.7055054,1.03921568
628.7095337,1.13725495
628.7095337,1.29411769
628.7136231,1.43137252
628.7178345,1.78431368
628.7219238,2
628.7219238,2.25490189
628.7258911,2.54901958
628.7300415,2.70588231
628.7300415,2.72549009
628.7341309,2.88235283
628.7382813,3.13725495
628.7423706,3.19607854
628.7423706,3.31372547
628.7463989,3.49019599
628.7505493,3.74509811
628.7547607,3.78431368
628.7547607,3.90196085
628.758728,3.86274505
628.7628784,3.68627453
628.7668457,3.64705873
628.7711792,3.62745094
628.7751465,3.62745094
628.7751465,3.70588231
628.7792358,3.66666675
628.7833862,3.60784316
628.7874146,3.50980401
628.7874146,3.54901958
628.7915039,3.56862736
628.7955322,3.60784316
628.7996216,3.62745094
628.7996216,3.52941179
628.803833,3.45098042
628.8078613,3.39215684
628.8119507,3.25490189
628.8161011,3.25490189
628.8201294,3.17647052
628.8201294,3.13725495
628.8243408,3.09803915
628.8283691,3.07843137
628.8326416,3.25490189
628.8326416,3.25490189
628.8364868,3.11764717
628.8406372,3
628.8447266,2.88235283
628.8447266,2.80392146
628.848877,2.80392146
628.8529663,2.86274505
628.8529663,2.74509811
628.8570557,2.7647059
628.861145,2.62745094
628.8652954,2.54901958
628.8652954,2.47058821
628.8693848,2.47058821
628.8734741,2.52941179
628.8775635,2.58823538
628.8775635,2.56862736
628.8816528,2.43137264
628.8855591,2.47058821
628.8898315,2.49019599
628.894043,2.58823538
628.8980713,2.49019599
628.8980713,2.52941179
628.9022217,2.52941179
628.906189,2.56862736
628.9104004,2.50980401
628.9104004,2.54901958
628.9144287,2.56862736
628.9185181,2.54901958
628.9226685,2.49019599
628.9226685,2.45098042
628.9266357,2.39215684
628.9307861,2.41176462
628.9348755,2.43137264
628.9390259,2.45098042
628.9429932,2.45098042
628.9429932,2.56862736
628.9473267,2.64705873
628.9512329,2.68627453
628.9555054,2.64705873
628.9555054,2.54901958
628.9593506,2.49019599
628.963501,2.49019599
628.9677124,2.43137264
628.9677124,2.49019599
628.9718018,2.50980401
628.9758911,2.52941179
628.9758911,2.54901958
628.9799194,2.52941179
628.9840088,2.49019599
628.9881592,2.54901958
628.9881592,2.62745094
628.9922485,2.64705873
628.9963989,2.62745094
629.0005493,2.45098042
629.0005493,2.45098042
629.0046387,2.43137264
629.008667,2.50980401
629.0128784,2.56862736
629.0128784,2.50980401
629.0167847,2.52941179
629.0209961,2.49019599
629.0209961,2.37254906
629.0250244,2.39215684
629.0290527,2.41176462
629.0332031,2.33333325
629.0332031,2.25490189
629.0374756,2.29411769
629.0413818,2.35294127
629.0455322,2.35294127
629.0455322,2.43137264
629.0494995,2.37254906
629.0536499,2.35294127
629.0577393,2.09803915
629.0618286,1.96078432
629.0661011,1.96078432
629.0661011,2.0392158
629.0701294,2.11764717
629.0741577,2.0392158
629.0782471,2.0392158
629.0782471,2.13725495
629.0824585,2.05882359
629.0864868,2.0392158
629.0905151,2
629.0905151,2.17647052
629.0947266,2.11764717
629.0987549,2.19607854
629.1028442,2.29411769
629.1069336,2.37254906
629.111023,2.43137264
629.111023,2.50980401
629.1151123,2.70588231
629.1191406,2.66666675
629.1234741,2.56862736
629.1234741,2.56862736
629.1274414,2.54901958
629.1315308,2.54901958
629.1355591,2.58823538
629.1355591,2.54901958
629.1397095,2.52941179
629.1438599,2.52941179
629.1438599,2.7647059
629.1478882,2.74509811
629.1520386,2.66666675
629.15625,2.52941179
629.15625,2.49019599
629.1601563,2.47058821
629.1642456,2.49019599
629.168457,2.52941179
629.168457,2.62745094
629.1724243,2.60784316
629.1765137,2.35294127
629.1807251,1.92156863
629.1807251,1.54901958
629.1847534,1.13725495
629.1889648,0.66666669
629.1889648,0.01960784
629.1928711,0
629.1970215,0
629.2011719,0
629.2011719,0
629.2053833,0.19607843
629.2094116,0.627451
629.2133179,1.21568632
629.2133179,1.80392158
629.2175903,2.33333325
629.2217407,2.86274505
629.225769,3.52941179
629.2297974,3.62745094
629.2339478,3.68627453
629.2339478,3.82352948
629.2380371,3.80392146
629.2421265,3.66666675
629.2462158,3.43137264
629.2462158,3.25490189
629.2504273,3.33333325
629.2545166,3.33333325
629.2584839,3.17647052
629.2584839,2.88235283
629.2625122,2.70588231
629.2666016,2.50980401
629.270874,2.58823538
629.2749634,2.49019599
629.2791138,2.52941179
629.2791138,2.50980401
629.28302,2.52941179
629.2871704,2.49019599
629.2913208,2.50980401
629.2913208,2.58823538
629.2954102,2.50980401
629.2993774,2.50980401
629.3035278,2.37254906
629.3035278,2.31372547
629.3076172,2.33333325
629.3117676,2.35294127
629.3117676,2.33333325
629.315979,2.41176462
629.3200073,2.31372547
629.3240356,2.29411769
629.3240356,2.29411769
629.328125,2.21568632
629.3322754,2.21568632
629.3364258,2.11764717
629.3364258,2.05882359
629.340332,1.96078432
629.3446045,2.05882359
629.3485718,1.9803921
629.3527222,1.82352936
629.3568115,1.70588231
629.3568115,1.66666663
629.3608398,1.60784316
629.3649902,1.50980389
629.3691406,1.37254906
629.3691406,1.37254906
629.373169,1.33333337
629.3773193,1.41176474
629.3813477,1.31372547
629.3813477,1.13725495
629.3855591,1.05882359
629.3896484,1
629.3937378,0.90196079
629.3977051,0.86274511
629.4021606,0.7647059
629.4021606,0.72549021
629.4058228,0.64705884
629.4099731,0.66666669
629.4141846,0.72549021
629.4141846,0.86274511
629.4182739,0.82352942
629.4224243,0.88235295
629.4263916,0.98039216
629.4263916,1.07843137
629.430542,1.07843137
629.4346314,1.15686274
629.4346314,1.43137252
629.4389038,1.54901958
629.4428711,1.78431368
629.4468994,1.96078432
629.4468994,2.13725495
629.4511719,2.47058821
629.4551392,2.62745094
629.4594727,2.80392146
629.4594727,2.90196085
629.4633179,3.09803915
629.4674072,3.29411769
629.4714966,3.37254906
629.4714966,3.41176462
629.475647,3.64705873
629.4797974,3.58823538
629.4797974,3.60784316
629.4837647,3.66666675
629.487915,3.72549009
629.4920044,3.7647059
629.4920044,3.72549009
629.4961548,3.88235283
629.5001221,3.90196085
629.5045166,3.90196085
629.5045166,4
629.5083618,4.05882359
629.5125732,3.9607842
629.5165405,3.60784316
629.5206909,3.47058821
629.5247803,3.47058821
629.5247803,3.43137264
629.5288696,3.35294127
629.532898,3.41176462
629.5370483,3.41176462
629.5370483,3.54901958
629.5411377,3.56862736
629.5452881,3.49019599
629.5493774,3.39215684
629.5493774,3.35294127
629.5534058,3.33333325
629.5574951,3.29411769
629.5617065,3.15686274
629.5658569,3.25490189
629.5698853,3.2352941
629.5698853,3.13725495
629.5739136,3.11764717
629.5780029,3.13725495
629.5822754,3.13725495
629.5822754,3.07843137
629.5863037,3.09803915
629.5903931,3.07843137
629.5943604,3.17647052
629.5943604,3.01960778
629.5985718,3.01960778
629.6026611,2.98039222
629.6026611,3
629.6066284,2.84313726
629.6107788,2.7647059
629.6148682,2.74509811
629.6148682,2.74509811
629.6190186,2.72549009
629.6231079,2.66666675
629.6272583,2.70588231
629.6272583,2.7647059
629.6312866,2.84313726
629.6354981,2.86274505
629.6395264,2.78431368
629.6435547,2.82352948
629.647644,2.82352948
629.647644,2.86274505
629.6518555,2.90196085
629.6558228,2.90196085
629.6599731,3.0392158
629.6599731,2.82352948
629.6640015,2.84313726
629.6680908,2.86274505
629.6723023,2.92156863
629.6723023,3.11764717
629.6763916,3.0392158
629.680481,3.07843137
629.6844482,3.21568632
629.6887207,3.15686274
629.692749,3
629.692749,2.88235283
629.6967163,2.80392146
629.7009888,2.64705873
629.7052002,2.60784316
629.7052002,2.56862736
629.7091065,2.60784316
629.7130737,2.68627453
629.7175293,2.70588231
629.7175293,2.80392146
629.7214356,2.80392146
629.7255249,2.86274505
629.7255249,2.80392146
629.7294922,2.88235283
629.7336426,2.82352948
629.737793,2.74509811
629.737793,2.7647059
629.7418823,2.78431368
629.7459717,2.84313726
629.7501221,2.86274505
629.7501221,2.90196085
629.7542725,2.92156863
629.7582398,2.98039222
629.7624512,2.98039222
629.7624512,3
629.7663574,2.98039222
629.7706299,2.90196085
629.7706299,2.66666675
629.7746582,2.56862736
629.7787476,2.62745094
629.78302,2.68627453
629.78302,2.66666675
629.7869263,2.62745094
629.7910767,2.60784316
629.795166,2.54901958
629.795166,2.47058821
629.7992554,2.39215684
629.8034058,2.33333325
629.8073731,2.39215684
629.8115845,2.37254906
629.8157349,2.31372547
629.8157349,2.29411769
629.8196411,2.21568632
629.8237915,2.25490189
629.8278809,2.33333325
629.8278809,2.2352941
629.8320313,2.33333325
629.8361816,2.37254906
629.8400879,2.41176462
629.8400879,2.35294127
629.8444214,2.47058821
629.8483887,2.64705873
629.8526001,2.84313726
629.8565064,2.66666675
629.8605957,2.68627453
629.8605957,2.62745094
629.8647461,2.68627453
629.8688965,2.62745094
629.8731079,2.68627453
629.8731079,2.60784316
629.8770752,2.62745094
629.8811646,2.60784316
629.885376,2.58823538
629.885376,2.52941179
629.8894043,2.56862736
629.8936157,2.60784316
629.8936157,2.64705873
629.897522,2.66666675
629.9017334,2.7647059
629.9057617,2.80392146
629.9057617,2.82352948
629.909729,2.92156863
629.9138794,2.88235283
629.9179688,2.82352948
629.9179688,2.64705873
629.9221802,2.56862736
629.9262695,2.52941179
629.9303589,2.27450991
629.9303589,2.05882359
629.9343872,1.80392158
629.9385376,1.54901958
629.9385376,1.03921568
629.942749,0.39215687
629.9465942,0
629.9507446,0
629.9507446,0
629.9549561,0
629.9591675,0.13725491
629.9631348,0.52941179
629.9631348,0.96078432
629.9671631,1.52941179
629.9713745,2.13725495
629.9754028,3.0392158
629.9794922,3.25490189
629.9836426,3.47058821
629.9836426,3.70588231
629.9876709,3.7647059
629.9917603,3.78431368
629.9958496,3.64705873
629.9958496,3.52941179
629.999939,3.45098042
630.0040283,3.39215684
630.0081177,3.25490189
630.0081177,3.27450991
630.0123291,3.15686274
630.0164795,3.11764717
630.0204468,2.9607842
630.0244751,2.90196085
630.0286255,2.78431368
630.0286255,2.72549009
630.0327148,2.68627453
630.0368042,2.58823538
630.0408936,2.49019599
630.0408936,2.35294127
630.0449829,2.39215684
630.0491333,2.41176462
630.0532837,2.39215684
630.0532837,2.43137264
630.0573731,2.41176462
630.0614624,2.35294127
630.0614624,2.35294127
630.0656128,2.39215684
630.0696411,2.37254906
630.0736084,2.43137264
630.0736084,2.37254906
630.0778198,2.33333325
630.0819702,2.25490189
630.0861206,2.27450991
630.0861206,2.29411769
630.0900269,2.35294127
630.0941162,2.47058821
630.0982056,2.37254906
630.102478,2.19607854
630.1065064,2.07843137
630.1065064,1.84313726
630.1104736,1.64705884
630.114624,1.68627453
630.1187744,1.7647059
630.1187744,1.54901958
630.1229248,1.37254906
630.1269531,1.27450979
630.1309815,1.2352941
630.1309815,1.17647064
630.1352539,1.13725495
630.1393433,1.27450979
630.1434326,0.96078432
630.1473999,0.80392158
630.1514893,0.70588237
630.1514893,0.84313726
630.1556397,0.82352942
630.159729,0.78431374
630.1637573,0.82352942
630.1637573,0.80392158
630.1678467,0.7647059
630.1720581,0.78431374
630.1761475,0.92156863
630.1761475,1.19607842
630.1801148,1.29411769
630.1843872,1.25490201
630.1843872,1.29411769
630.1884766,1.37254906
630.1924439,1.50980389
630.1966553,1.60784316
630.1966553,1.80392158
630.2006836,1.88235295
630.204773,2.15686274
630.2089844,2.35294127
630.2089844,2.72549009
630.2129517,2.90196085
630.217041,3
630.2211914,3.01960778
630.2211914,3.15686274
630.2252808,3.27450991
630.2293701,3.31372547
630.2293701,3.56862736
630.2333984,3.7647059
630.2374878,3.84313726
630.2416382,3.84313726
630.2416382,3.78431368
630.2457275,3.72549009
630.2498779,3.7647059
630.2540283,3.88235283
630.2540283,3.82352948
630.2579956,3.80392146
630.262146,3.60784316
630.2662354,3.56862736
630.2704468,3.58823538
630.274292,3.60784316
630.274292,3.49019599
630.2785645,3.49019599
630.2825928,3.47058821
630.2867432,3.45098042
630.2867432,3.39215684
630.2907715,3.35294127
630.2948608,3.33333325
630.2990112,3.2352941
630.2990112,3.25490189
630.3031616,3.29411769
630.3071289,3.27450991
630.3113403,3.37254906
630.3154907,3.35294127
630.3196411,3.35294127
630.3196411,3.21568632
630.3234253,3.0392158
630.3277588,2.92156863
630.3318481,3
630.3318481,2.98039222
630.3360596,2.90196085
630.3399658,2.94117641
630.3439941,2.94117641
630.3439941,2.86274505
630.3480835,2.86274505
630.3522949,2.92156863
630.3522949,3.01960778
630.3563843,2.90196085
630.3603516,2.78431368
630.364502,2.72549009
630.364502,2.82352948
630.3686523,2.74509811
630.3728638,2.82352948
630.3769531,2.7647059
630.3769531,2.82352948
630.3808594,2.80392146
630.3851318,2.92156863
630.3890991,2.94117641
630.3890991,2.84313726
630.3933106,2.72549009
630.3973999,2.62745094
630.3973999,2.66666675
630.4013672,2.70588231
630.4055176,2.58823538
630.4096069,2.49019599
630.4096069,2.50980401
630.4136963,2.62745094
630.4177856,2.70588231
630.421936,2.68627453
630.421936,2.56862736
630.4260254,2.58823538
630.4301148,2.58823538
630.434082,2.78431368
630.4384766,2.92156863
630.4423218,3.01960778
630.4423218,3.09803915
630.4465332,2.90196085
630.4506226,2.74509811
630.454834,2.70588231
630.454834,2.80392146
630.4587402,2.7647059
630.4628906,2.72549009
630.467041,2.74509811
630.467041,2.52941179
630.4710693,2.41176462
630.4751587,2.43137264
630.4792481,2.47058821
630.4833984,2.52941179
630.4874268,2.56862736
630.4874268,2.60784316
630.4915161,2.54901958
630.4956665,2.52941179
630.4997559,2.58823538
630.4997559,2.52941179
630.5039063,2.49019599
630.5078735,2.50980401
630.512085,2.50980401
630.512085,2.49019599
630.5161133,2.49019599
630.5203247,2.56862736
630.5203247,2.66666675
630.524353,2.84313726
630.5285645,2.92156863
630.5326538,2.82352948
630.5326538,2.70588231
630.5366821,2.70588231
630.5407105,2.60784316
630.5447388,2.43137264
630.5447388,2.27450991
630.5488892,2.29411769
630.5530396,2.17647052
630.5571289,2.19607854
630.5611572,2.19607854
630.5654297,2.27450991
630.5654297,2.33333325
630.569397,2.33333325
630.5735474,2.37254906
630.5774536,2.33333325
630.5774536,2.21568632
630.581665,2.13725495
630.5858154,2.19607854
630.5898438,2.19607854
630.5898438,2.27450991
630.5938721,2.19607854
630.5981445,2.09803915
630.6021729,2.17647052
630.6062622,2.35294127
630.6104126,2.47058821
630.6104126,2.68627453
630.6143799,2.84313726
630.6185303,2.86274505
630.6227417,2.66666675
630.6227417,2.64705873
630.6268311,2.62745094
630.6307373,2.66666675
630.6350098,2.68627453
630.6350098,2.58823538
630.6389771,2.47058821
630.6431885,2.49019599
630.6431885,2.60784316
630.6470947,2.66666675
630.6516724,2.56862736
630.6555176,2.50980401
630.6555176,2.54901958
630.6595459,2.58823538
630.6636353,2.58823538
630.6676636,2.58823538
630.6676636,2.60784316
630.671814,2.66666675
630.6759033,2.82352948
630.6800537,2.92156863
630.6800537,2.92156863
630.68396,2.82352948
630.6882324,2.54901958
630.6882324,2.25490189
630.6922607,1.9803921
630.6964111,1.80392158
630.7005005,1.41176474
630.7005005,0.70588237
630.7047119,0.05882353
630.7086182,0
630.7127686,0
630.7127686,0
630.71698,0
630.7209473,0
630.7250366,0.56862748
630.729126,1.2352941
630.7332764,1.7647059
630.7332764,2.27450991
630.7374268,2.58823538
630.741394,2.86274505
630.7454834,3.17647052
630.7454834,3.45098042
630.7495728,3.66666675
630.7539063,3.70588231
630.7577515,3.60784316
630.7577515,3.35294127
630.7619019,3.19607854
630.7661133,3.09803915
630.7703857,3.21568632
630.7741699,3.21568632
630.7785034,3.21568632
630.7785034,3
630.7823486,2.92156863
630.7865601,2.98039222
630.7906494,2.94117641
630.7906494,2.94117641
630.7946167,2.92156863
630.7987671,2.90196085
630.8029175,2.84313726
630.8029175,2.9607842
630.8070679,2.86274505
630.8109741,2.72549009
630.8109741,2.56862736
630.8151856,2.47058821
630.8192749,2.50980401
630.8234253,2.54901958
630.8234253,2.62745094
630.8273315,2.39215684
630.831543,2.35294127
630.8357544,2.35294127
630.8357544,2.33333325
630.8397827,2.25490189
630.843811,2.2352941
630.8478394,2.21568632
630.8521118,2.19607854
630.8562012,2.21568632
630.8562012,2.19607854
630.8602295,2.13725495
630.8643799,2.05882359
630.8684082,2.01960778
630.8684082,1.94117641
630.8724976,1.84313726
630.876648,1.84313726
630.8807373,1.80392158
630.8807373,1.7647059
630.8847656,1.72549021
630.888916,1.60784316
630.8930664,1.27450979
630.8971558,1.21568632
630.9012451,1.17647064
630.9012451,1.11764705
630.9055176,0.94117647
630.9094849,0.80392158
630.9135742,0.7647059
630.9135742,0.70588237
630.9174805,0.60784316
630.9216919,0.56862748
630.9257813,0.50980395
630.9257813,0.56862748
630.9298706,0.60784316
630.934021,0.72549021
630.934021,0.72549021
630.9379883,0.68627453
630.9422607,0.68627453
630.946228,0.84313726
630.946228,1.05882359
630.9504395,1.27450979
630.9543457,1.45098042
630.9585571,1.68627453
630.9585571,1.84313726
630.9626465,2.07843137
630.9667358,2.31372547
630.9710083,2.37254906
630.9710083,2.43137264
630.9748535,2.54901958
630.9790039,2.68627453
630.9790039,2.88235283
630.9832153,3.07843137
630.9873657,3.29411769
630.9914551,3.43137264
630.9914551,3.33333325
630.9954224,3.21568632
630.9995728,3.17647052
631.0037842,3.25490189
631.0037842,3.29411769
631.0076294,3.27450991
631.0118408,3.31372547
631.0158691,3.45098042
631.0200806,3.37254906
631.0241699,3.27450991
631.0241699,3.31372547
631.0281372,3.33333325
631.0323486,3.35294127
631.036438,3.35294127
631.036438,3.31372547
631.0405273,3.35294127
631.0444946,3.33333325
631.048645,3.35294127
631.048645,3.33333325
631.0527954,3.29411769
631.0568848,3.27450991
631.0609741,3.27450991
631.0650635,3.25490189
631.0692139,3.09803915
631.0692139,2.9607842
631.0732422,2.94117641
631.0773926,3.0392158
631.0814819,3.13725495
631.0814819,3.33333325
631.0855713,3.0392158
631.0895996,2.92156863
631.0938721,2.86274505
631.0938721,2.84313726
631.0977783,2.7647059
631.1019287,2.74509811
631.1019287,2.60784316
631.1060181,2.60784316
631.1101074,2.66666675
631.1142578,2.68627453
631.1142578,2.68627453
631.1183472,2.62745094
631.1223755,2.70588231
631.1265259,2.70588231
631.1265259,2.64705873
631.1306152,2.70588231
631.1346436,2.62745094
631.138794,2.70588231
631.138794,2.64705873
631.1428223,2.58823538
631.1471558,2.60784316
631.1471558,2.64705873
631.1509399,2.68627453
631.1552124,2.64705873
631.1593628,2.54901958
631.1593628,2.47058821
631.1633911,2.62745094
631.1675415,2.56862736
631.1715088,2.52941179
631.1715088,2.39215684
631.1755981,2.27450991
631.1797485,2.15686274
631.1838379,1.92156863
631.1879883,1.96078432
631.1919556,2.09803915
631.1919556,2.13725495
631.1960449,2.11764717
631.2003174,2.07843137
631.2043457,2.11764717
631.2043457,2.19607854
631.2084961,2.2352941
631.2125244,2.11764717
631.2166138,2.11764717
631.2166138,2.13725495
631.2208252,2.09803915
631.2247315,2.01960778
631.2289429,2.11764717
631.2330933,2.21568632
631.2371826,2.17647052
631.2371826,2.13725495
631.2411499,2.09803915
631.2454224,2.07843137
631.2493897,2.13725495
631.2493897,2.17647052
631.2536011,2.05882359
631.2576294,2.0392158
631.2617188,2.01960778
631.2617188,2.01960778
631.265686,2.05882359
631.2700195,2
631.2700195,2.05882359
631.2740479,2.09803915
631.2780151,2.13725495
631.2822266,2.15686274
631.2822266,2.13725495
631.2863159,2.21568632
631.2904663,2.21568632
631.2946167,2.19607854
631.2946167,2.15686274
631.298584,2.13725495
631.3026733,2.17647052
631.3068237,2.21568632
631.31073,2.33333325
631.3149414,2.45098042
631.3149414,2.43137264
631.3190918,2.25490189
631.3229981,2.0392158
631.3272705,2.0392158
631.3272705,2.07843137
631.3313599,2.15686274
631.3355103,2.13725495
631.3395386,2.19607854
631.3395386,2.15686274
631.3436279,2.11764717
631.3477783,2.09803915
631.3517456,2.21568632
631.355957,2.31372547
631.3601074,2.21568632
631.3601074,2.19607854
631.3641968,2.15686274
631.3681641,2.05882359
631.3723755,2.05882359
631.3723755,2.11764717
631.3764648,2.13725495
631.3805542,2.17647052
631.3848877,2.07843137
631.3848877,2.07843137
631.3887329,2.0392158
631.3928223,2.0392158
631.3928223,2.07843137
631.3968506,2.25490189
631.4009399,2.37254906
631.4050903,2.33333325
631.4050903,2.39215684
631.4091187,2.45098042
631.413208,2.50980401
631.4174194,2.56862736
631.4174194,2.49019599
631.4214478,2.47058821
631.4255981,2.37254906
631.4296875,2.41176462
631.4296875,2.50980401
631.4338379,2.60784316
631.4379883,2.62745094
631.4379883,2.70588231
631.4419556,2.74509811
631.4459839,2.64705873
631.4501953,2.72549009
631.4501953,2.78431368
631.4542847,2.82352948
631.4584961,2.74509811
631.4623413,2.7647059
631.4623413,2.70588231
631.4666138,2.78431368
631.4706421,2.80392146
631.4746094,2.74509811
631.4787598,2.64705873
631.4829712,2.45098042
631.4829712,2.09803915
631.4870606,1.88235295
631.4912109,1.45098042
631.4951782,0.84313726
631.4951782,0.15686275
631.4993286,0
631.503479,0
631.5075684,0
631.5075684,0
631.5114746,0
631.515625,0.01960784
631.5197144,0.7647059
631.5239868,1.33333337
631.5280151,1.82352936
631.5280151,2.27450991
631.5320435,2.66666675
631.5361328,3.01960778
631.5402222,3.41176462
631.5402222,3.52941179
631.5444336,3.56862736
631.5484619,3.49019599
631.5525513,3.39215684
631.5525513,3.39215684
631.5567017,3.43137264
631.560791,3.35294127
631.560791,3.31372547
631.5648193,3.21568632
631.5690308,3.11764717
631.5729981,3.09803915
631.5729981,3.09803915
631.5772095,3.07843137
631.5811768,3.01960778
631.5855713,2.94117641
631.5855713,2.92156863
631.5893555,2.80392146
631.5935059,2.78431368
631.5975342,2.86274505
631.6016235,2.80392146
631.605835,2.86274505
631.605835,2.78431368
631.6099243,2.70588231
631.6139526,2.70588231
631.618103,2.72549009
631.618103,2.70588231
631.6221314,2.56862736
631.6263428,2.49019599
631.6304932,2.39215684
631.6304932,2.43137264
631.6343994,2.39215684
631.6384888,2.37254906
631.6426392,2.27450991
631.6467896,2.25490189
631.6508179,2.39215684
631.6508179,2.37254906
631.6549072,2.25490189
631.6589966,2.15686274
631.6630859,1.96078432
631.6630859,1.86274505
631.6672974,1.86274505
631.6714478,1.88235295
631.675354,1.9803921
631.675354,1.90196073
631.6795044,1.78431368
631.6837158,1.62745094
631.6878052,1.17647064
631.6917114,1.19607842
631.6958618,1.05882359
631.6958618,0.96078432
631.7000732,0.90196079
631.7042847,0.82352942
631.708252,0.88235295
631.708252,0.82352942
631.7123413,0.82352942
631.7164307,0.84313726
631.72052,0.90196079
631.72052,0.90196079
631.7246094,0.96078432
631.7286987,0.94117647
631.7286987,0.98039216
631.7328491,1.19607842
631.7368774,1.25490201
631.7409668,1.27450979
631.7409668,1.33333337
631.7449951,1.41176474
631.7490845,1.50980389
631.7532959,1.84313726
631.7532959,2.09803915
631.7573853,2.2352941
631.7615356,2.2352941
631.7655029,2.58823538
631.7697144,2.80392146
631.7737427,2.98039222
631.7737427,3.13725495
631.777832,3.31372547
631.7819214,3.33333325
631.7860107,3.50980401
631.7860107,3.62745094
631.7901611,3.60784316
631.7942505,3.70588231
631.7984009,3.7647059
631.7984009,3.86274505
631.8023682,3.86274505
631.8065186,3.84313726
631.8106079,3.88235283
631.8148193,3.80392146
631.8187866,3.82352948
631.8187866,3.88235283
631.8228149,3.84313726
631.8270264,3.94117641
631.8311157,3.9607842
631.8311157,3.90196085
631.8353272,3.88235283
631.8393555,3.82352948
631.8433838,3.56862736
631.8433838,3.47058821
631.8474121,3.31372547
631.8516846,3.29411769
631.8516846,3.33333325
631.8556519,3.37254906
631.8597412,3.39215684
631.8638916,3.29411769
631.8638916,3.31372547
631.867981,3.21568632
631.8719482,3.21568632
631.8762207,3.19607854
631.8762207,3.19607854
631.880249,3.17647052
631.8844605,3.25490189
631.8885498,3.29411769
631.8885498,3.2352941
631.8925781,3.25490189
631.8966675,3.25490189
631.8966675,3.21568632
631.9008789,3.15686274
631.9048462,3.17647052
631.9088745,3.15686274
631.9088745,3.07843137
631.9130249,3.01960778
631.9171143,3
631.9213257,2.9607842
631.9213257,2.94117641
631.925354,2.94117641
631.9293823,2.9607842
631.9334717,2.90196085
631.9376221,2.7647059
631.9418335,2.72549009
631.9418335,2.7647059
631.9456787,2.7647059
631.9498901,2.7647059
631.9540405,2.7647059
631.9540405,2.72549009
631.9580689,2.7647059
631.9621582,2.70588231
631.9663696,2.68627453
631.9663696,2.72549009
631.970459,2.74509811
631.9744873,2.70588231
631.9785156,2.7647059
631.982605,2.70588231
631.9868164,2.78431368
631.9868164,2.92156863
631.9909058,2.9607842
631.9948731,2.98039222
631.9989624,2.94117641
631.9989624,2.82352948
632.0032349,2.80392146
632.0072632,2.74509811
632.0114136,2.72549009
632.0114136,2.7647059
632.0153198,2.62745094
632.0195923,2.60784316
632.0195923,2.54901958
632.0236206,2.62745094
632.02771,2.70588231
632.0319824,2.94117641
632.0319824,2.88235283
632.0359497,2.80392146
632.0400391,2.7647059
632.0441284,2.74509811
632.0441284,2.82352948
632.0482178,2.78431368
632.0523682,2.66666675
632.0563355,2.49019599
632.0605469,2.50980401
632.0646362,2.58823538
632.0646362,2.68627453
632.0685425,2.68627453
632.0727539,2.74509811
632.0769653,2.7647059
632.0769653,2.72549009
632.0809937,2.62745094
632.085144,2.62745094
632.0891113,2.74509811
632.0891113,2.82352948
632.0932617,2.92156863
632.0973511,2.70588231
632.1015625,2.56862736
632.1055298,2.62745094
632.1096191,2.62745094
632.1096191,2.64705873
632.1137695,2.68627453
632.1178589,2.7647059
632.1220703,2.74509811
632.1220703,2.62745094
632.1260376,2.54901958
632.1300659,2.60784316
632.1342773,2.66666675
632.1342773,2.58823538
632.1384277,2.60784316
632.142395,2.52941179
632.142395,2.58823538
632.1464844,2.56862736
632.1505737,2.60784316
632.1548462,2.50980401
632.1548462,2.58823538
632.1587524,2.56862736
632.1628418,2.54901958
632.1669922,2.56862736
632.1669922,2.58823538
632.1711426,2.60784316
632.1751099,2.64705873
632.1793823,2.66666675
632.1793823,2.49019599
632.1834106,2.33333325
632.187561,2.41176462
632.187561,2.39215684
632.1915894,2.41176462
632.1956177,2.31372547
632.1999512,2.29411769
632.1999512,2.21568632
632.2039795,2.15686274
632.2081299,2.17647052
632.2122192,2.17647052
632.2122192,2.17647052
632.2162476,2.27450991
632.2203369,2.39215684
632.2243042,2.50980401
632.2283936,2.52941179
632.2324829,2.62745094
632.2324829,2.7647059
632.2366333,2.78431368
632.2407227,2.66666675
632.2448731,2.66666675
632.2448731,2.70588231
632.2488403,2.70588231
632.2531128,2.68627453
632.2571411,2.70588231
632.2571411,2.7647059
632.2613525,2.7647059
632.2653809,2.7647059
632.2695313,2.82352948
632.2735596,2.80392146
632.2775879,2.82352948
632.2775879,2.70588231
632.2817993,2.58823538
632.2857666,2.52941179
632.289917,2.56862736
632.289917,2.62745094
632.2940064,2.58823538
632.2980957,2.45098042
632.302124,2.17647052
632.302124,1.80392158
632.3063355,1.33333337
632.3103638,0.7647059
632.3103638,0.13725491
632.3145752,0
632.3187256,0
632.3226318,0
632.3226318,0
632.3267212,0
632.3308716,0.01960784
632.335022,0.29411766
632.335022,0.86274511
632.3390503,1.54901958
632.3432007,2.15686274
632.347229,2.56862736
632.347229,2.88235283
632.3513794,3.15686274
632.3554688,3.41176462
632.3554688,3.60784316
632.359436,3.56862736
632.3635864,3.54901958
632.3677368,3.54901958
632.3677368,3.56862736
632.3718262,3.58823538
632.3759155,3.54901958
632.3800049,3.52941179
632.3800049,3.43137264
632.3843384,3.43137264
632.3883057,3.27450991
632.392395,3.11764717
632.3964233,2.98039222
632.4005127,3
632.4005127,3.05882359
632.4047241,3.19607854
632.4085693,3.19607854
632.4127197,3.17647052
632.4127197,3.0392158
632.4168701,2.92156863
632.4210205,2.72549009
632.4251099,2.74509811
632.4251099,2.70588231
632.4291382,2.78431368
632.4333496,2.86274505
632.437439,2.72549009
632.4414673,2.62745094
632.4455566,2.50980401
632.4455566,2.45098042
632.449707,2.37254906
632.4537354,2.33333325
632.4580078,2.25490189
632.4580078,2.27450991
632.461853,2.33333325
632.4660034,2.29411769
632.4700928,2.2352941
632.4700928,2.27450991
632.4742432,2.17647052
632.4783936,2.13725495
632.4783936,2.11764717
632.4823608,2.0392158
632.4865112,1.9803921
632.4906006,1.86274505
632.4906006,1.80392158
632.494751,1.66666663
632.4987183,1.62745094
632.5029907,1.58823526
632.5029907,1.45098042
632.507019,1.35294116
632.5111084,1.07843137
632.5151978,0.90196079
632.5194702,0.84313726
632.5233765,0.7647059
632.5233765,0.7647059
632.5274658,0.80392158
632.5316773,0.7647059
632.5358276,0.7647059
632.5358276,0.80392158
632.5397949,0.84313726
632.5438843,0.90196079
632.5479736,0.94117647
632.5479736,1.05882359
632.552002,1.11764705
632.5560913,1.2352941
632.5603027,1.45098042
632.5643921,1.68627453
632.5685425,1.94117641
632.5685425,2.17647052
632.5725708,2.49019599
632.5766602,2.74509811
632.5806885,2.92156863
632.5806885,2.98039222
632.585022,3.13725495
632.5888672,3.37254906
632.5930176,3.49019599
632.5930176,3.54901958
632.5971069,3.60784316
632.6011353,3.66666675
632.6011353,3.66666675
632.6054077,3.7647059
632.609314,3.80392146
632.6134644,3.94117641
632.6134644,3.9607842
632.6176758,4.03921556
632.6217651,3.86274505
632.6259155,3.80392146
632.6259155,3.84313726
632.6300049,3.88235283
632.6339111,3.88235283
632.6383057,3.88235283
632.6383057,3.88235283
632.6420898,3.84313726
632.6465454,3.72549009
632.6465454,3.60784316
632.6503906,3.58823538
632.6546021,3.68627453
632.6585693,3.68627453
632.6585693,3.7647059
632.6625366,3.74509811
632.6667481,3.58823538
632.6708984,3.52941179
632.6708984,3.54901958
632.6749878,3.49019599
632.678894,3.58823538
632.6831055,3.35294127
632.6872559,3.41176462
632.6914673,3.37254906
632.6914673,3.29411769
632.6953735,3.19607854
632.699646,3.21568632
