0.904405,2.49019599
0.90855831,2.54901958
0.91269529,2.60784316
0.91269529,2.66666675
0.91668481,2.72549009
0.92080539,2.74509811
0.92493415,2.74509811
0.92903012,2.7647059
0.93306881,2.72549009
0.93306881,2.66666675
0.93714839,2.68627453
0.94128537,2.72549009
0.94548786,2.54901958
0.94548786,2.50980401
0.94937909,2.50980401
0.95354879,2.50980401
0.95771033,2.49019599
0.95771033,2.45098042
0.96177357,2.45098042
0.9658286,2.43137264
0.9700557,2.43137264
0.97406977,2.39215684
0.97819036,2.37254906
0.97819036,2.37254906
0.98233551,2.33333325
0.98630041,2.31372547
0.99049473,2.31372547
0.99049473,2.37254906
0.99463987,2.39215684
0.99873585,2.41176462
1.00275815,2.47058821
1.00275815,2.49019599
1.00683773,2.52941179
1.01094198,2.60784316
1.01508713,2.64705873
1.01909304,2.66666675
1.02318895,2.58823538
1.02318895,2.58823538
1.02731776,2.54901958
1.03147924,2.58823538
1.03564084,2.60784316
1.03564084,2.68627453
1.03960574,2.66666675
1.04375911,2.62745094
1.04784691,2.58823538
1.04784691,2.56862736
1.05200839,2.52941179
1.05614543,2.50980401
1.06011033,2.52941179
1.06420636,2.52941179
1.06836784,2.50980401
1.06836784,2.50980401
1.07231641,2.54901958
1.07644522,2.49019599
1.08063126,2.47058821
1.08063126,2.45098042
1.08468628,2.43137264
1.08881509,2.37254906
1.09284556,2.45098042
1.09284556,2.37254906
1.09703982,2.39215684
1.10113585,2.35294127
1.10524821,2.27450991
1.10524821,2.2352941
1.10922956,2.21568632
1.1133256,2.27450991
1.1133256,2.43137264
1.11746252,2.43137264
1.12156677,2.52941179
1.12572002,2.60784316
1.12572002,2.49019599
1.12968504,2.45098042
1.1337564,2.37254906
1.13793433,2.25490189
1.13793433,2.19607854
1.14198112,2.17647052
1.14607716,2.19607854
1.15011585,2.21568632
1.15011585,2.31372547
1.15432656,2.41176462
1.15844715,2.50980401
1.15844715,2.58823538
1.1623956,2.56862736
1.16658175,2.56862736
1.17069411,2.54901958
1.17069411,2.49019599
1.17482293,2.47058821
1.17892706,2.49019599
1.18307221,2.50980401
1.18307221,2.49019599
1.18705356,2.45098042
1.19117415,2.52941179
1.19522917,2.58823538
1.19522917,2.47058821
1.1992842,2.41176462
1.20341301,2.41176462
1.20341301,2.39215684
1.20757449,2.31372547
1.21163774,2.37254906
1.21584022,2.37254906
1.21584022,2.43137264
1.2198298,2.45098042
1.22395039,2.43137264
1.22805452,2.43137264
1.22805452,2.41176462
1.23221612,2.39215684
1.2361728,2.35294127
1.24029338,2.33333325
1.24029338,2.25490189
1.24444675,2.25490189
1.24857545,2.27450991
1.24857545,2.25490189
1.2525568,2.33333325
1.25661182,2.39215684
1.26078153,2.50980401
1.26078153,2.50980401
1.26492667,2.50980401
1.26907182,2.47058821
1.27306139,2.45098042
1.27306139,2.37254906
1.27719831,2.37254906
1.28132713,2.31372547
1.28542316,2.27450991
1.28542316,2.31372547
1.28941262,2.37254906
1.29354954,2.43137264
1.29763734,2.56862736
1.30183172,2.54901958
1.30596864,2.58823538
1.30596864,2.56862736
1.31007278,2.54901958
1.31404591,2.54901958
1.31810915,2.58823538
1.31810915,2.60784316
1.32228708,2.58823538
1.32626843,2.58823538
1.33047915,2.58823538
1.33047915,2.52941179
1.33455873,2.52941179
1.33867931,2.47058821
1.342677,2.31372547
1.34680581,2.25490189
1.35095096,2.21568632
1.35095096,2.21568632
1.35507965,2.2352941
1.359061,2.25490189
1.36317337,2.27450991
1.36317337,2.27450991
1.36730218,2.2352941
1.37144732,2.25490189
1.37557602,2.33333325
1.37557602,2.43137264
1.37951636,2.45098042
1.38360417,2.56862736
1.3877821,2.56862736
1.39190269,2.58823538
1.39608061,2.60784316
1.39608061,2.60784316
1.40007019,2.60784316
1.40418255,2.60784316
1.40831125,2.66666675
1.40831125,2.68627453
1.41230905,2.72549009
1.41642952,2.7647059
1.420542,2.78431368
1.420542,2.78431368
1.42467892,2.72549009
1.42882407,2.72549009
1.43278074,2.72549009
1.43701601,2.7647059
1.44102192,2.84313726
1.44102192,2.86274505
1.44513428,2.90196085
1.44914019,2.92156863
1.45332634,2.90196085
1.45332634,2.84313726
1.45743871,2.72549009
1.46161664,2.64705873
1.46571267,2.50980401
1.46571267,2.45098042
1.46966934,2.47058821
1.47378993,2.41176462
1.47793508,2.47058821
1.48208022,2.52941179
1.48620081,2.50980401
1.48620081,2.54901958
1.49018216,2.54901958
1.49431908,2.60784316
1.49843967,2.62745094
1.49843967,2.60784316
1.50248659,2.58823538
1.50659072,2.56862736
1.51068676,2.50980401
1.51068676,2.43137264
1.51481545,2.39215684
1.51903439,2.41176462
1.52306485,2.2352941
1.52705431,2.25490189
1.53118312,2.21568632
1.53118312,2.19607854
1.53532004,2.19607854
1.5393014,2.27450991
1.54342198,2.2352941
1.54342198,2.21568632
1.5475589,2.19607854
1.55167949,2.25490189
1.55580008,2.2352941
1.55580008,2.25490189
1.55978143,2.27450991
1.56405759,2.25490189
1.56799793,2.2352941
1.57216763,2.2352941
1.57624733,2.21568632
1.57624733,2.17647052
1.58031869,2.17647052
1.58443105,2.27450991
1.58855987,2.31372547
1.58855987,2.35294127
1.59255755,2.43137264
1.59669447,2.52941179
1.60080695,2.62745094
1.60080695,2.64705873
1.60493565,2.68627453
1.60902345,2.70588231
1.61304581,2.7647059
1.61304581,2.82352948
1.61718273,2.84313726
1.62130332,2.80392146
1.62130332,2.78431368
1.62537467,2.72549009
1.62944615,2.60784316
1.63352573,2.54901958
1.63352573,2.52941179
1.63763809,2.50980401
1.64176691,2.47058821
1.64596117,2.43137264
1.64596117,2.45098042
1.6500572,2.45098042
1.65404677,2.45098042
1.65818369,2.45098042
1.65818369,2.43137264
1.66226327,2.41176462
1.66632652,2.43137264
1.66632652,2.47058821
1.67044711,2.47058821
1.67457592,2.54901958
1.67868006,2.64705873
1.67868006,2.68627453
1.68263686,2.64705873
1.68679833,2.66666675
1.69101727,2.62745094
1.69101727,2.62745094
1.69509685,2.50980401
1.69899619,2.43137264
1.70314956,2.35294127
1.70314956,2.27450991
1.70732749,2.17647052
1.7114563,2.15686274
1.7114563,2.11764717
1.71561778,2.15686274
1.71954179,2.15686274
1.72367048,2.17647052
1.72367048,2.2352941
1.72782385,2.21568632
1.73196077,2.25490189
1.73606503,2.27450991
1.73606503,2.33333325
1.74012828,2.29411769
1.74425697,2.31372547
1.74836946,2.33333325
1.74836946,2.37254906
1.75250638,2.50980401
1.75646305,2.64705873
1.75646305,2.80392146
1.76055908,2.90196085
1.76480258,2.94117641
1.76881659,2.9607842
1.76881659,2.88235283
1.77281439,2.82352948
1.77705777,2.72549009
1.78118658,2.62745094
1.78118658,2.58823538
1.7852416,2.60784316
1.78924751,2.62745094
1.79335988,2.66666675
1.79335988,2.66666675
1.79744768,2.70588231
1.8015765,2.70588231
1.80575442,2.66666675
1.80973566,2.68627453
1.81384802,2.72549009
1.81384802,2.74509811
1.81796861,2.70588231
1.82203186,2.66666675
1.82613611,2.62745094
1.82613611,2.54901958
1.83016658,2.49019599
1.83422971,2.47058821
1.83839953,2.49019599
1.83839953,2.52941179
1.84257746,2.60784316
1.84655058,2.66666675
1.85069573,2.72549009
1.85482442,2.70588231
1.85894501,2.66666675
1.85894501,2.60784316
1.86305737,2.54901958
1.86706328,2.43137264
1.87120843,2.45098042
1.87120843,2.41176462
1.87523067,2.37254906
1.87926114,2.41176462
1.88341451,2.37254906
1.88341451,2.33333325
1.88747776,2.31372547
1.89163935,2.29411769
1.89576805,2.29411769
1.89974117,2.31372547
1.90397644,2.2352941
1.90397644,2.17647052
1.90798235,2.15686274
1.91213572,2.13725495
1.91631365,2.17647052
1.91631365,2.21568632
1.92027032,2.2352941
1.92435813,2.33333325
1.92847872,2.39215684
1.92847872,2.50980401
1.9324764,2.54901958
1.93659699,2.58823538
1.9408077,2.60784316
1.94493639,2.62745094
1.94907343,2.58823538
1.94907343,2.54901958
1.95298922,2.50980401
1.95717525,2.50980401
1.96123028,2.50980401
1.96123028,2.49019599
1.96540821,2.47058821
1.96937323,2.49019599
1.97367394,2.56862736
1.97367394,2.58823538
1.97758973,2.56862736
1.98180044,2.52941179
1.98588824,2.39215684
1.98998427,2.33333325
1.9940393,2.33333325
1.9940393,2.25490189
1.99820077,2.27450991
2.00223947,2.27450991
2.00636816,2.21568632
2.00636816,2.19607854
2.01036596,2.21568632
2.01463389,2.21568632
2.01862359,2.2352941
2.01862359,2.19607854
2.02263761,2.21568632
2.02674174,2.31372547
2.03117371,2.35294127
2.03502393,2.37254906
2.03911996,2.39215684
2.03911996,2.37254906
2.04310107,2.31372547
2.04726267,2.27450991
2.05136681,2.27450991
2.05136681,2.37254906
2.05551195,2.45098042
2.0594933,2.52941179
2.06363845,2.56862736
2.06363845,2.60784316
2.06774282,2.62745094
2.07185507,2.66666675
2.07599211,2.70588231
2.08002257,2.70588231
2.0841186,2.66666675
2.0841186,2.68627453
2.08823085,2.64705873
2.09235144,2.60784316
2.09651303,2.52941179
2.09651303,2.47058821
2.1005435,2.39215684
2.10459852,2.35294127
2.10872722,2.35294127
2.10872722,2.27450991
2.11275768,2.31372547
2.11696839,2.37254906
2.12094164,2.37254906
2.12094164,2.37254906
2.1251359,2.35294127
2.12920737,2.37254906
2.12920737,2.43137264
2.13322949,2.50980401
2.13733387,2.50980401
2.14147902,2.56862736
2.14147902,2.50980401
2.14564037,2.49019599
2.14959717,2.47058821
2.15372586,2.47058821
2.15372586,2.43137264
2.1578548,2.50980401
2.16193438,2.60784316
2.16608763,2.62745094
2.16608763,2.68627453
2.17007709,2.7647059
2.17422223,2.82352948
2.17422223,2.78431368
2.17834282,2.72549009
2.18249631,2.64705873
2.18649387,2.52941179
2.18649387,2.45098042
2.19071293,2.45098042
2.19480872,2.45098042
2.19895387,2.47058821
2.19895387,2.52941179
2.20306635,2.54901958
2.20705581,2.58823538
2.2112174,2.60784316
2.2112174,2.60784316
2.21532989,2.60784316
2.21946669,2.62745094
2.21946669,2.58823538
2.22344804,2.52941179
2.22759318,2.47058821
2.23173022,2.43137264
2.23173022,2.41176462
2.23584247,2.31372547
2.23985672,2.31372547
2.24409199,2.27450991
2.24409199,2.25490189
2.24808955,2.25490189
2.25221848,2.27450991
2.25632262,2.33333325
2.25632262,2.39215684
2.26030397,2.49019599
2.26447368,2.54901958
2.26447368,2.60784316
2.26856971,2.72549009
2.27268195,2.78431368
2.27667975,2.78431368
2.27667975,2.7647059
2.28089857,2.70588231
2.28498626,2.66666675
2.2891233,2.58823538
2.2891233,2.58823538
2.29310465,2.64705873
2.29720879,2.66666675
2.30133772,2.72549009
2.30133772,2.74509811
2.30549908,2.78431368
2.30962801,2.72549009
2.31360102,2.72549009
2.31775427,2.68627453
2.32183409,2.64705873
2.32183409,2.60784316
2.32592988,2.54901958
2.33008337,2.50980401
2.33407283,2.58823538
2.33407283,2.52941179
2.33817697,2.50980401
2.3422811,2.45098042
2.3464756,2.39215684
2.3464756,2.33333325
2.35042405,2.31372547
2.3545692,2.31372547
2.35868168,2.33333325
2.36280227,2.31372547
2.36680818,2.29411769
2.36680818,2.19607854
2.37095332,2.19607854
2.37507391,2.17647052
2.37917805,2.17647052
2.37917805,2.19607854
2.38311839,2.17647052
2.38732076,2.17647052
2.39136767,2.15686274
2.39136767,2.21568632
2.39557028,2.2352941
2.39971542,2.27450991
2.40367198,2.33333325
2.40780091,2.35294127
2.41185594,2.37254906
2.41185594,2.45098042
2.41607475,2.43137264
2.42004776,2.47058821
2.42416835,2.43137264
2.42416835,2.45098042
2.42823982,2.45098042
2.43250799,2.43137264
2.43662858,2.45098042
2.43662858,2.45098042
2.44072437,2.45098042
2.44468951,2.47058821
2.44885087,2.43137264
2.45293045,2.41176462
2.45710039,2.39215684
2.45710039,2.39215684
2.46108985,2.31372547
2.46521854,2.35294127
2.46930647,2.31372547
2.46930647,2.31372547
2.47338605,2.37254906
2.4775722,2.45098042
2.48159432,2.49019599
2.48159432,2.43137264
2.48573136,2.47058821
2.48974538,2.52941179
2.49373484,2.47058821
2.49794555,2.50980401
2.50202513,2.47058821
2.50202513,2.43137264
2.5060885,2.37254906
2.51013541,2.31372547
2.51428056,2.27450991
2.51428056,2.27450991
2.51841736,2.29411769
2.5225625,2.27450991
2.52669144,2.31372547
2.52669144,2.37254906
2.530689,2.41176462
2.53475237,2.47058821
2.53893828,2.64705873
2.54305887,2.68627453
2.54704833,2.72549009
2.54704833,2.70588231
2.55118537,2.74509811
2.55531406,2.74509811
2.55942655,2.72549009
2.55942655,2.68627453
2.56339979,2.70588231
2.56753659,2.68627453
2.57161617,2.66666675
2.57161617,2.72549009
2.57578588,2.74509811
2.57995582,2.74509811
2.58405995,2.64705873
2.58804131,2.58823538
2.59217,2.52941179
2.59217,2.49019599
2.59618402,2.49019599
2.6003046,2.45098042
2.60441709,2.41176462
2.60441709,2.47058821
2.60855389,2.47058821
2.61271548,2.47058821
2.61687708,2.50980401
2.61687708,2.54901958
2.62084198,2.60784316
2.62497067,2.54901958
2.62909961,2.56862736
2.62909961,2.58823538
2.63305616,2.60784316
2.63717675,2.64705873
2.63717675,2.66666675
2.64127278,2.66666675
2.64539337,2.66666675
2.64954686,2.60784316
2.64954686,2.56862736
2.65354443,2.54901958
2.65766501,2.52941179
2.6617775,2.49019599
2.6617775,2.47058821
2.66596341,2.49019599
2.67005134,2.52941179
2.67404079,2.54901958
2.67404079,2.52941179
2.67819428,2.52941179
2.68230653,2.49019599
2.68230653,2.39215684
2.68631244,2.33333325
2.69042492,2.29411769
2.69448805,2.33333325
2.69448805,2.33333325
2.6986742,2.45098042
2.70273733,2.49019599
2.70684981,2.49019599
2.70684981,2.49019599
2.71094584,2.50980401
2.71507454,2.43137264
2.71912146,2.47058821
2.71912146,2.45098042
2.72318459,2.35294127
2.72729707,2.33333325
2.72729707,2.29411769
2.73145866,2.29411769
2.73557091,2.27450991
2.7396915,2.29411769
2.7396915,2.31372547
2.74368095,2.29411769
2.7478261,2.29411769
2.75190568,2.31372547
2.75190568,2.39215684
2.7559936,2.43137264
2.76002407,2.45098042
2.76414466,2.50980401
2.76414466,2.47058821
2.76829791,2.47058821
2.77242684,2.43137264
2.77242684,2.39215684
2.77657199,2.39215684
2.78056145,2.35294127
2.78467369,2.33333325
2.78467369,2.31372547
2.78881884,2.27450991
2.79293942,2.27450991
2.7970438,2.29411769
2.7970438,2.21568632
2.80107427,2.19607854
2.80519485,2.13725495
2.80929899,2.15686274
2.80929899,2.19607854
2.81329656,2.21568632
2.81742549,2.27450991
2.82148862,2.39215684
2.82566667,2.39215684
2.82976246,2.35294127
2.82976246,2.33333325
2.83379292,2.29411769
2.83792996,2.27450991
2.842067,2.27450991
2.842067,2.2352941
2.8462038,2.21568632
2.85018516,2.25490189
2.85430574,2.29411769
2.85430574,2.35294127
2.85842633,2.41176462
2.86252236,2.49019599
2.86669207,2.62745094
2.87067342,2.70588231
2.87481046,2.78431368
2.87481046,2.84313726
2.87893105,2.92156863
2.88298607,2.92156863
2.88706565,2.92156863
2.88706565,2.92156863
2.89111257,2.94117641
2.89536405,2.90196085
2.89946008,2.84313726
2.89946008,2.86274505
2.90342498,2.78431368
2.90754557,2.74509811
2.91161704,2.7647059
2.91582775,2.78431368
2.91993189,2.80392146
2.91993189,2.78431368
2.92405248,2.7647059
2.92798471,2.74509811
2.93208885,2.68627453
2.93208885,2.64705873
2.9362421,2.58823538
2.94028091,2.52941179
2.94436049,2.56862736
2.94436049,2.52941179
2.9485383,2.52941179
2.95260978,2.56862736
2.95667291,2.60784316
2.9607935,2.58823538
2.96496344,2.60784316
2.96496344,2.58823538
2.96905923,2.54901958
2.97304893,2.54901958
2.97719407,2.50980401
2.97719407,2.50980401
2.98132277,2.45098042
2.98545146,2.43137264
2.98957205,2.45098042
2.98957205,2.49019599
2.99354529,2.54901958
2.99766588,2.58823538
3.00184369,2.62745094
3.00598073,2.70588231
3.0100522,2.70588231
3.0100522,2.64705873
3.01404977,2.68627453
3.01822782,2.72549009
3.0223074,2.72549009
3.0223074,2.62745094
3.02641964,2.54901958
3.03041744,2.52941179
3.03453803,2.49019599
3.03453803,2.43137264
3.03866673,2.43137264
3.04279542,2.33333325
3.04693246,2.39215684
3.05106115,2.33333325
3.05506706,2.33333325
3.05506706,2.27450991
3.05916309,2.2352941
3.06329179,2.13725495
3.06734705,2.07843137
3.06734705,2.05882359
3.07144284,2.11764717
3.07554722,2.25490189
3.07972503,2.31372547
3.07972503,2.33333325
3.08369827,2.35294127
3.08781052,2.35294127
3.09188199,2.17647052
3.09607625,2.13725495
3.10019684,2.13725495
3.10019684,2.17647052
3.10416174,2.13725495
3.10830688,2.15686274
3.11240292,2.15686274
3.11240292,2.2352941
3.11655641,2.27450991
3.12057042,2.29411769
3.12467456,2.29411769
3.12467456,2.31372547
3.1287787,2.35294127
3.13285828,2.39215684
3.13703632,2.35294127
3.13703632,2.33333325
3.14098477,2.39215684
3.14521194,2.43137264
3.14521194,2.41176462
3.14925885,2.47058821
3.15331388,2.52941179
3.15741801,2.52941179
3.15741801,2.52941179
3.16157961,2.50980401
3.1657002,2.43137264
3.16979599,2.43137264
3.16979599,2.43137264
3.17378569,2.41176462
3.17806172,2.41176462
3.18210053,2.47058821
3.18210053,2.49019599
3.18624568,2.47058821
3.19036627,2.49019599
3.19036627,2.56862736
3.19432306,2.60784316
3.1984272,2.60784316
3.20258045,2.56862736
3.20258045,2.52941179
3.2065618,2.54901958
3.21061683,2.50980401
3.21480298,2.54901958
3.21480298,2.56862736
3.21894813,2.64705873
3.22306871,2.70588231
3.22706628,2.74509811
3.22706628,2.74509811
3.23120332,2.72549009
3.23533201,2.72549009
3.23533201,2.66666675
3.2394526,2.64705873
3.24344206,2.66666675
3.24752998,2.60784316
3.24752998,2.58823538
3.25167513,2.62745094
3.25576305,2.60784316
3.2598834,2.54901958
3.2598834,2.47058821
3.26403689,2.41176462
3.26799369,2.39215684
3.27215505,2.39215684
3.27215505,2.41176462
3.27625108,2.49019599
3.28042912,2.54901958
3.28042912,2.56862736
3.28443503,2.56862736
3.28854728,2.60784316
3.29261875,2.60784316
3.29261875,2.66666675
3.29665732,2.62745094
3.30083537,2.64705873
3.30511975,2.58823538
3.30511975,2.54901958
3.30911756,2.52941179
3.31321335,2.52941179
3.31734228,2.50980401
3.31734228,2.56862736
3.32131529,2.60784316
3.32541943,2.52941179
3.3294909,2.52941179
3.33352137,2.50980401
3.33763385,2.54901958
3.33763385,2.56862736
3.34177065,2.50980401
3.3459568,2.52941179
3.35006094,2.50980401
3.35006094,2.58823538
3.35404229,2.58823538
3.35817933,2.60784316
3.36226702,2.64705873
3.36226702,2.68627453
3.36644506,2.56862736
3.37043452,2.50980401
3.37452245,2.39215684
3.37865925,2.33333325
3.38273883,2.31372547
3.38273883,2.35294127
3.38678575,2.41176462
3.39100456,2.45098042
3.39500237,2.56862736
3.39500237,2.62745094
3.39920497,2.66666675
3.40330911,2.62745094
3.40729856,2.64705873
3.40729856,2.62745094
3.41142726,2.64705873
3.41551518,2.60784316
3.41968489,2.66666675
3.42367435,2.64705873
3.42777848,2.56862736
3.42777848,2.54901958
3.43191552,2.54901958
3.43606067,2.52941179
3.44013214,2.54901958
3.44013214,2.52941179
3.44409704,2.54901958
3.44826674,2.52941179
3.45239544,2.54901958
3.45239544,2.49019599
3.45656514,2.41176462
3.46056294,2.35294127
3.46469164,2.15686274
3.46879601,2.09803915
3.47293282,2.11764717
3.47293282,2.15686274
3.47706175,2.19607854
3.48103476,2.2352941
3.48517179,2.27450991
3.48517179,2.25490189
3.48929238,2.2352941
3.4932735,2.33333325
3.49738598,2.37254906
3.49738598,2.39215684
3.50150657,2.43137264
3.50559425,2.49019599
3.50976419,2.41176462
3.51379466,2.41176462
3.51805449,2.45098042
3.51805449,2.39215684
3.52205205,2.31372547
3.52618909,2.31372547
3.53030968,2.25490189
3.53030968,2.2352941
3.53428268,2.2352941
3.53842783,2.2352941
3.54254842,2.29411769
3.54254842,2.33333325
3.54666901,2.39215684
3.55066681,2.41176462
3.5547955,2.49019599
3.55891609,2.54901958
3.56305313,2.58823538
3.56305313,2.52941179
3.56703448,2.47058821
3.57108951,2.49019599
3.57526731,2.52941179
3.57526731,2.49019599
3.57940435,2.49019599
3.58349204,2.50980401
3.58753896,2.47058821
3.58753896,2.41176462
3.59165144,2.39215684
3.59577179,2.39215684
3.59994173,2.37254906
3.59994173,2.41176462
3.60406232,2.45098042
3.60803533,2.50980401
3.60803533,2.50980401
3.61214781,2.50980401
3.61631751,2.56862736
3.6204381,2.56862736
3.6204381,2.50980401
3.624403,2.49019599
3.62848258,2.47058821
3.63261962,2.43137264
3.63261962,2.43137264
3.63676476,2.49019599
3.64071321,2.49019599
3.64501405,2.50980401
3.64501405,2.56862736
3.64908552,2.52941179
3.65318155,2.56862736
3.65318155,2.52941179
3.65717912,2.52941179
3.66128325,2.49019599
3.6654284,2.45098042
3.6654284,2.41176462
3.66955733,2.41176462
3.67354679,2.45098042
3.67766738,2.49019599
3.67766738,2.52941179
3.68180418,2.50980401
3.68591666,2.50980401
3.69001269,2.45098042
3.69001269,2.50980401
3.69405961,2.52941179
3.69817185,2.52941179
3.69817185,2.58823538
3.70232534,2.58823538
3.70643759,2.60784316
3.71055007,2.60784316
3.71055007,2.62745094
3.71456409,2.66666675
3.71871734,2.68627453
3.72276425,2.70588231
3.72276425,2.68627453
3.7269423,2.60784316
3.7310791,2.58823538
3.735044,2.56862736
3.735044,2.50980401
3.73918915,2.45098042
3.74331808,2.41176462
3.74331808,2.41176462
3.74729943,2.35294127
3.75146914,2.29411769
3.75558138,2.33333325
3.75558138,2.33333325
3.75968552,2.35294127
3.76367521,2.37254906
3.76786137,2.39215684
3.76786137,2.47058821
3.77191639,2.50980401
3.77604508,2.52941179
3.78019834,2.56862736
3.78019834,2.60784316
3.78412247,2.62745094
3.78829217,2.62745094
3.79243731,2.62745094
3.7965579,2.58823538
3.8006866,2.56862736
3.8006866,2.54901958
3.80466795,2.56862736
3.80879664,2.56862736
3.81291723,2.52941179
3.81291723,2.58823538
3.81702971,2.56862736
3.82098627,2.50980401
3.82515621,2.45098042
3.82515621,2.35294127
3.82926035,2.31372547
3.8334136,2.31372547
3.83741951,2.19607854
3.84155655,2.15686274
3.84566879,2.11764717
3.84566879,2.09803915
3.84982228,2.13725495
3.85379529,2.19607854
3.85806346,2.27450991
3.85806346,2.39215684
3.86202002,2.47058821
3.86618972,2.54901958
3.87034321,2.58823538
3.87034321,2.62745094
3.87434077,2.70588231
3.87846971,2.7647059
3.88261485,2.78431368
3.88666987,2.82352948
3.89079046,2.74509811
3.89079046,2.78431368
3.89485359,2.82352948
3.89894152,2.80392146
3.90304565,2.7647059
3.90304565,2.66666675
3.90709257,2.64705873
3.91121316,2.62745094
3.91534185,2.56862736
3.91534185,2.50980401
3.91947055,2.47058821
3.92360759,2.45098042
3.92759705,2.37254906
3.93174219,2.37254906
3.93584633,2.41176462
3.93584633,2.45098042
3.93993425,2.43137264
3.94409585,2.39215684
3.9480443,2.43137264
3.9480443,2.47058821
3.95216489,2.43137264
3.95635104,2.45098042
3.96042252,2.43137264
3.96042252,2.43137264
3.96444464,2.37254906
3.96865535,2.33333325
3.97271848,2.35294127
3.97686386,2.41176462
3.98083687,2.43137264
3.98083687,2.43137264
3.98511314,2.41176462
3.98911071,2.43137264
3.99323964,2.35294127
3.99323964,2.33333325
3.99718809,2.31372547
4.00134134,2.35294127
4.00549459,2.39215684
4.00549459,2.45098042
4.00954962,2.45098042
4.01367044,2.47058821
4.01770926,2.50980401
4.02180529,2.41176462
4.02591753,2.37254906
4.02591753,2.35294127
4.03006268,2.31372547
4.03407669,2.31372547
4.03821373,2.39215684
4.03821373,2.41176462
4.04235888,2.49019599
4.04645491,2.50980401
4.05061626,2.52941179
4.05061626,2.52941179
4.05458927,2.50980401
4.05875111,2.49019599
4.06274033,2.35294127
4.06697559,2.29411769
4.07104731,2.27450991
4.07104731,2.33333325
4.07503653,2.37254906
4.07920647,2.41176462
4.0833106,2.47058821
4.0833106,2.47058821
4.08729172,2.47058821
4.09142065,2.49019599
4.09563112,2.49019599
4.09563112,2.49019599
4.09976006,2.47058821
4.10386419,2.49019599
4.10784578,2.43137264
4.10784578,2.37254906
4.11192513,2.33333325
4.11611938,2.29411769
4.11611938,2.31372547
4.12024021,2.35294127
4.12422132,2.41176462
4.12830114,2.43137264
4.12830114,2.47058821
4.13244629,2.52941179
4.13654232,2.50980401
4.14066267,2.52941179
4.14066267,2.52941179
4.1447258,2.49019599
4.14882183,2.47058821
4.15289354,2.47058821
4.15289354,2.52941179
4.1570797,2.54901958
4.16111803,2.54901958
4.16111803,2.54901958
4.16527176,2.52941179
4.16934299,2.54901958
4.17346334,2.50980401
4.17346334,2.50980401
4.17746925,2.52941179
4.18159008,2.56862736
4.18573523,2.52941179
4.18573523,2.60784316
4.18983936,2.70588231
4.19382906,2.74509811
4.19805574,2.82352948
4.19805574,2.80392146
4.20204544,2.82352948
4.20623159,2.70588231
4.20623159,2.64705873
4.21029472,2.54901958
4.21432543,2.54901958
4.21847057,2.52941179
4.21847057,2.52941179
4.22259903,2.52941179
4.22673607,2.50980401
4.2308321,2.49019599
4.2308321,2.45098042
4.23483801,2.49019599
4.23899126,2.50980401
4.24311209,2.43137264
4.24311209,2.37254906
4.2470603,2.39215684
4.25122213,2.29411769
4.25122213,2.2352941
4.25535917,2.2352941
4.25943041,2.25490189
4.26354265,2.29411769
4.26354265,2.31372547
4.26760578,2.33333325
4.27167749,2.39215684
4.27578974,2.47058821
4.27578974,2.47058821
4.27997589,2.56862736
4.28411293,2.60784316
4.28808594,2.60784316
4.28808594,2.60784316
4.29222298,2.64705873
4.29632711,2.60784316
4.30048847,2.52941179
4.30446196,2.52941179
4.30858231,2.56862736
4.30858231,2.58823538
4.31266212,2.64705873
4.31685638,2.68627453
4.32091951,2.74509811
4.32091951,2.7647059
4.32504034,2.7647059
4.32908678,2.72549009
4.33318281,2.64705873
4.33318281,2.56862736
4.33728695,2.58823538
4.34129286,2.54901958
4.34556103,2.49019599
4.34963274,2.50980401
4.35373688,2.49019599
4.35373688,2.56862736
4.35768509,2.56862736
4.36183882,2.58823538
4.36597538,2.54901958
4.36597538,2.49019599
4.37009621,2.45098042
4.37407732,2.45098042
4.37822247,2.50980401
4.37822247,2.49019599
4.38230228,2.47058821
4.38642263,2.47058821
4.39057636,2.33333325
4.39455748,2.31372547
4.39868641,2.2352941
4.39868641,2.13725495
4.40279055,2.09803915
4.40696001,2.07843137
4.41111326,2.09803915
4.41111326,2.11764717
4.41512775,2.13725495
4.41923189,2.11764717
4.42336035,2.17647052
4.42336035,2.15686274
4.42746449,2.17647052
4.43147039,2.19607854
4.43561554,2.2352941
4.43971157,2.25490189
4.4438076,2.19607854
4.4438076,2.21568632
4.44778919,2.27450991
4.45208979,2.35294127
4.45604658,2.52941179
4.45604658,2.54901958
4.46013451,2.68627453
4.46418953,2.7647059
4.46833467,2.78431368
4.46833467,2.72549009
4.47247171,2.72549009
4.47655916,2.74509811
4.48067999,2.84313726
4.4846611,2.84313726
4.48878193,2.82352948
4.48878193,2.84313726
4.49287796,2.86274505
4.49704742,2.86274505
4.50107813,2.78431368
4.50107813,2.78431368
4.50523949,2.74509811
4.50929451,2.74509811
4.51337433,2.74509811
4.51337433,2.68627453
4.51747847,2.66666675
4.5215416,2.66666675
4.52566242,2.47058821
4.52977467,2.39215684
4.53392792,2.27450991
4.53392792,2.31372547
4.53803205,2.33333325
4.54202986,2.33333325
4.5461669,2.33333325
4.5461669,2.33333325
4.55031204,2.33333325
4.55428505,2.31372547
4.55842209,2.27450991
4.55842209,2.17647052
4.56252623,2.15686274
4.56663036,2.11764717
4.57069349,2.09803915
4.57478142,2.11764717
4.57900858,2.19607854
4.57900858,2.25490189
4.5830307,2.33333325
4.58717585,2.35294127
4.59111643,2.39215684
4.59111643,2.43137264
4.59524488,2.43137264
4.59944773,2.39215684
4.60355186,2.37254906
4.60355186,2.33333325
4.60753298,2.33333325
4.6116128,2.31372547
4.61578226,2.35294127
4.61578226,2.41176462
4.61992741,2.47058821
4.62410545,2.52941179
4.62410545,2.52941179
4.62809515,2.54901958
4.63217449,2.58823538
4.63628721,2.62745094
4.63628721,2.64705873
4.64045668,2.64705873
4.64442968,2.62745094
4.64855862,2.58823538
4.64855862,2.58823538
4.65264654,2.60784316
4.65679979,2.56862736
4.66092873,2.56862736
4.66092873,2.58823538
4.66507387,2.62745094
4.66903877,2.62745094
4.66903877,2.56862736
4.67315102,2.58823538
4.67730427,2.56862736
4.68130207,2.52941179
4.68130207,2.45098042
4.68539,2.37254906
4.68952656,2.35294127
4.69359827,2.29411769
4.69359827,2.19607854
4.69765329,2.13725495
4.70173264,2.13725495
4.70603371,2.09803915
4.70603371,2.0392158
4.71005583,2.01960778
4.71415186,2.05882359
4.71415186,2.09803915
4.71814156,2.09803915
4.72229481,2.11764717
4.72642374,2.15686274
4.72642374,2.21568632
4.73051977,2.25490189
4.73453379,2.35294127
4.73866224,2.45098042
4.73866224,2.56862736
4.74284029,2.62745094
4.74698544,2.74509811
4.75108147,2.86274505
4.75108147,2.88235283
4.75508738,2.92156863
4.75916719,2.94117641
4.75916719,2.92156863
4.76328754,2.86274505
4.76732635,2.7647059
4.77143049,2.72549009
4.77143049,2.68627453
4.77553463,2.64705873
4.77970409,2.68627453
4.78385782,2.70588231
4.78385782,2.64705873
4.78783894,2.66666675
4.79211521,2.64705873
4.79605532,2.64705873
4.79605532,2.64705873
4.80027437,2.62745094
4.80435419,2.60784316
4.8083272,2.60784316
4.81247234,2.60784316
4.81658459,2.62745094
4.81658459,2.62745094
4.82067251,2.58823538
4.82466221,2.58823538
4.82879066,2.56862736
4.82879066,2.54901958
4.83296871,2.54901958
4.83703995,2.54901958
4.84116077,2.62745094
4.84116077,2.64705873
4.8452158,2.56862736
4.84937716,2.54901958
4.85348129,2.45098042
4.8574872,2.39215684
4.86162424,2.33333325
4.86162424,2.25490189
4.86568737,2.29411769
4.8698411,2.33333325
4.87395334,2.33333325
4.87395334,2.39215684
4.87809038,2.43137264
4.88204718,2.52941179
4.88612652,2.49019599
4.88612652,2.52941179
4.89022255,2.54901958
4.8944087,2.54901958
4.8983736,2.45098042
4.90253496,2.37254906
4.90666389,2.33333325
4.90666389,2.25490189
4.91080093,2.27450991
4.9150281,2.31372547
4.9190011,2.33333325
4.9190011,2.45098042
4.922966,2.49019599
4.92711115,2.54901958
4.9312973,2.52941179
4.9312973,2.56862736
4.93527031,2.56862736
4.93940735,2.52941179
4.94348717,2.39215684
4.94746828,2.37254906
4.95166254,2.37254906
4.95166254,2.33333325
4.95568466,2.31372547
4.95987082,2.31372547
4.96408176,2.33333325
4.96408176,2.35294127
4.96802998,2.35294127
4.9721756,2.43137264
4.97629595,2.49019599
4.97629595,2.52941179
4.98040819,2.60784316
4.98443079,2.54901958
4.98852682,2.47058821
4.99266338,2.47058821
4.9967351,2.47058821
4.9967351,2.47058821
5.00077343,2.43137264
5.00499249,2.47058821
5.0090065,2.47058821
5.0090065,2.49019599
5.01312733,2.56862736
5.01724768,2.58823538
5.02141762,2.66666675
5.02141762,2.7647059
5.02542353,2.78431368
5.02954388,2.7647059
5.0336647,2.7647059
5.03765392,2.62745094
5.04175806,2.56862736
5.04175806,2.49019599
5.04588699,2.45098042
5.05005693,2.43137264
5.05417728,2.41176462
5.05417728,2.47058821
5.05814219,2.50980401
5.06229544,2.50980401
5.06638336,2.50980401
5.06638336,2.49019599
5.0704546,2.49019599
5.07450962,2.50980401
5.07864666,2.50980401
5.08279991,2.50980401
5.08692074,2.47058821
5.08692074,2.47058821
5.09104967,2.47058821
5.09498978,2.49019599
5.09915113,2.47058821
5.09915113,2.47058821
5.10329628,2.47058821
5.10739231,2.47058821
5.11152124,2.39215684
5.11152124,2.39215684
5.11551905,2.37254906
5.1196723,2.35294127
5.12379313,2.41176462
5.12379313,2.37254906
5.12777424,2.33333325
5.13195229,2.43137264
5.13195229,2.47058821
5.13600731,2.41176462
5.14012766,2.43137264
5.1442976,2.43137264
5.1442976,2.43137264
5.14830351,2.41176462
5.15233374,2.45098042
5.1565361,2.50980401
5.1565361,2.54901958
5.16068125,2.54901958
5.16466284,2.52941179
5.16878319,2.50980401
5.16878319,2.43137264
5.17289591,2.43137264
5.17705727,2.43137264
5.17705727,2.45098042
5.18099785,2.45098042
5.18511009,2.43137264
5.18924713,2.45098042
5.18924713,2.45098042
5.1934247,2.43137264
5.19753742,2.37254906
5.20157576,2.35294127
5.20157576,2.31372547
5.20567179,2.31372547
5.20978451,2.35294127
5.21393776,2.33333325
5.21393776,2.33333325
5.2180829,2.35294127
5.22208881,2.35294127
5.22208881,2.27450991
5.22616005,2.21568632
5.23030519,2.15686274
5.23443413,2.21568632
5.23443413,2.25490189
5.23839903,2.19607854
5.24255228,2.2352941
5.24665642,2.27450991
5.24665642,2.25490189
5.25085068,2.27450991
5.25484037,2.35294127
5.25910854,2.43137264
5.25910854,2.56862736
5.26302433,2.58823538
5.26716089,2.64705873
5.26716089,2.62745094
5.27117538,2.62745094
5.27528763,2.60784316
5.27939177,2.58823538
5.27939177,2.64705873
5.2835288,2.68627453
5.28761673,2.64705873
5.29165506,2.66666675
5.29165506,2.72549009
5.29577589,2.68627453
5.29991293,2.64705873
5.30402517,2.64705873
5.30402517,2.62745094
5.30802298,2.60784316
5.31210232,2.58823538
5.31625557,2.49019599
5.32034349,2.41176462
5.32452154,2.29411769
5.32452154,2.29411769
5.32847023,2.25490189
5.3326478,2.31372547
5.33678484,2.37254906
5.33678484,2.47058821
5.34092188,2.52941179
5.3449769,2.52941179
5.34904003,2.50980401
5.34904003,2.45098042
5.35316896,2.50980401
5.3572979,2.50980401
5.36130333,2.68627453
5.36542416,2.60784316
5.36954451,2.68627453
5.36954451,2.68627453
5.37367344,2.66666675
5.37765455,2.68627453
5.38175917,2.74509811
5.38175917,2.80392146
5.3858633,2.90196085
5.38996744,2.88235283
5.39413691,2.90196085
5.39413691,2.90196085
5.39819193,2.84313726
5.40227175,2.68627453
5.406425,2.52941179
5.41052914,2.49019599
5.41469097,2.50980401
5.41469097,2.52941179
5.41864777,2.56862736
5.42276001,2.50980401
5.42692137,2.50980401
5.42692137,2.50980401
5.43105841,2.43137264
5.43507242,2.45098042
5.43918467,2.45098042
5.43918467,2.47058821
5.4433465,2.47058821
5.44741774,2.45098042
5.45140743,2.45098042
5.45558548,2.47058821
5.45965672,2.49019599
5.45965672,2.49019599
5.46380997,2.43137264
5.46796322,2.41176462
5.47210026,2.39215684
5.47210026,2.35294127
5.47608995,2.29411769
5.4802022,2.33333325
5.48435545,2.35294127
5.48435545,2.37254906
5.48834515,2.41176462
5.49244928,2.45098042
5.49654531,2.50980401
5.50069857,2.56862736
5.50484371,2.54901958
5.50484371,2.49019599
5.5087924,2.47058821
5.51291275,2.47058821
5.517066,2.47058821
5.517066,2.41176462
5.5210886,2.39215684
5.52516794,2.43137264
5.52933788,2.37254906
5.52933788,2.39215684
5.53345013,2.43137264
5.53760338,2.43137264
5.54159307,2.49019599
5.54568911,2.47058821
5.54985046,2.50980401
5.54985046,2.49019599
5.5539794,2.47058821
5.55809975,2.49019599
5.56208134,2.47058821
5.56208134,2.45098042
5.56620169,2.45098042
5.57029772,2.47058821
5.57441044,2.54901958
5.57441044,2.64705873
5.57838345,2.68627453
5.58259392,2.74509811
5.58665705,2.64705873
5.59077787,2.54901958
5.59498835,2.52941179
5.59498835,2.39215684
5.59912539,2.33333325
5.60309839,2.31372547
5.60722733,2.31372547
5.60722733,2.33333325
5.61132336,2.41176462
5.61534548,2.47058821
5.61945009,2.50980401
5.61945009,2.50980401
5.62360334,2.49019599
5.62772369,2.47058821
5.63171339,2.47058821
5.63171339,2.50980401
5.63578463,2.45098042
5.63990545,2.50980401
5.63990545,2.49019599
5.64406681,2.49019599
5.64806461,2.45098042
5.65215254,2.43137264
5.65215254,2.49019599
5.65628099,2.50980401
5.66044283,2.60784316
5.66461229,2.64705873
5.66461229,2.62745094
5.6685853,2.64705873
5.67269802,2.64705873
5.67681837,2.62745094
5.67681837,2.56862736
5.68092251,2.58823538
5.68510866,2.54901958
5.68510866,2.50980401
5.68908167,2.47058821
5.6932106,2.47058821
5.69724941,2.49019599
5.69724941,2.56862736
5.70119762,2.54901958
5.70540857,2.58823538
5.7094717,2.60784316
5.7094717,2.60784316
5.71372318,2.60784316
5.717803,2.60784316
5.72194004,2.54901958
5.72194004,2.49019599
5.72604418,2.47058821
5.73004198,2.47058821
5.73004198,2.49019599
5.73418713,2.52941179
5.73816824,2.50980401
5.74227238,2.56862736
5.74227238,2.52941179
5.74640942,2.47058821
5.75051355,2.45098042
5.75462627,2.47058821
5.75462627,2.49019599
5.75859928,2.52941179
5.76277685,2.52941179
5.76684856,2.52941179
5.76684856,2.52941179
5.77102661,2.50980401
5.77504873,2.43137264
5.77504873,2.41176462
5.77916908,2.37254906
5.78331423,2.35294127
5.78742695,2.37254906
5.78742695,2.33333325
5.79140806,2.35294127
5.7955122,2.33333325
5.79968214,2.29411769
5.79968214,2.25490189
5.80380249,2.15686274
5.80793142,2.15686274
5.81203556,2.19607854
5.81203556,2.25490189
5.81603336,2.31372547
5.82009649,2.41176462
5.82429886,2.39215684
5.82822275,2.37254906
5.83240891,2.33333325
5.83240891,2.33333325
5.83655405,2.35294127
5.84065866,2.35294127
5.84480381,2.39215684
5.84480381,2.41176462
5.84882593,2.41176462
5.85293007,2.43137264
5.85703421,2.37254906
5.85703421,2.41176462
5.86117935,2.43137264
5.86517715,2.43137264
5.8692975,2.45098042
5.87335253,2.49019599
5.87751436,2.47058821
5.87751436,2.50980401
5.88147926,2.47058821
5.88568974,2.43137264
5.88973665,2.41176462
5.88973665,2.41176462
5.8938489,2.47058821
5.89806795,2.54901958
5.90204096,2.62745094
5.90204096,2.68627453
5.906178,2.72549009
5.91024971,2.74509811
5.91443539,2.80392146
5.91839218,2.80392146
5.92249632,2.82352948
5.92249632,2.78431368
5.92664146,2.78431368
5.9307785,2.70588231
5.93491554,2.68627453
5.93491554,2.66666675
5.93901157,2.62745094
5.94296026,2.58823538
5.94712162,2.56862736
5.94712162,2.54901958
5.95120144,2.52941179
5.95530558,2.50980401
5.95940161,2.45098042
5.96356297,2.35294127
5.9676671,2.33333325
5.9676671,2.29411769
5.97159958,2.31372547
5.97580194,2.35294127
5.97988129,2.35294127
5.97988129,2.37254906
5.98401833,2.35294127
5.98800802,2.31372547
5.99212837,2.27450991
5.99212837,2.25490189
5.99625731,2.29411769
6.00038624,2.31372547
6.0045557,2.33333325
6.00847149,2.37254906
6.01260853,2.37254906
6.01260853,2.41176462
6.01676989,2.47058821
6.02091503,2.49019599
6.02502775,2.47058821
6.02502775,2.47058821
6.02902508,2.43137264
6.0331378,2.41176462
6.03728294,2.41176462
6.03728294,2.29411769
6.04127216,2.29411769
6.0453763,2.25490189
6.04953003,2.17647052
6.05365038,2.19607854
6.05778742,2.21568632
6.05778742,2.27450991
6.06173611,2.33333325
6.06601238,2.39215684
6.06996059,2.47058821
6.06996059,2.54901958
6.07409763,2.58823538
6.07811165,2.64705873
6.08224869,2.66666675
6.08224869,2.60784316
6.08636951,2.56862736
6.09052277,2.45098042
6.09465981,2.41176462
6.09866524,2.39215684
6.10275316,2.43137264
6.10275316,2.45098042
6.1068821,2.47058821
6.11103535,2.50980401
6.11517239,2.58823538
6.11517239,2.60784316
6.11913729,2.66666675
6.12334776,2.60784316
6.12745237,2.52941179
6.12745237,2.50980401
6.1314826,2.47058821
6.13553762,2.37254906
6.13965845,2.43137264
6.13965845,2.45098042
6.14387703,2.43137264
6.14794016,2.43137264
6.14794016,2.41176462
6.15203619,2.41176462
6.15602589,2.41176462
6.16023636,2.41176462
6.16023636,2.47058821
6.16432428,2.45098042
6.16830587,2.49019599
6.17245102,2.52941179
6.17245102,2.58823538
6.17657948,2.54901958
6.1806674,2.56862736
6.18484545,2.56862736
6.18484545,2.47058821
6.18881035,2.47058821
6.19306993,2.47058821
6.19306993,2.52941179
6.19702673,2.50980401
6.20114756,2.56862736
6.20534182,2.58823538
6.20534182,2.54901958
6.20927382,2.52941179
6.21342707,2.49019599
6.2175312,2.47058821
6.2175312,2.52941179
6.22157001,2.52941179
6.22569895,2.49019599
6.2298193,2.47058821
6.2298193,2.45098042
6.23397255,2.47058821
6.23809338,2.47058821
6.23809338,2.50980401
6.24206638,2.54901958
6.24617863,2.52941179
6.25032377,2.50980401
6.25032377,2.50980401
6.2544446,2.49019599
6.25842571,2.45098042
6.26252985,2.41176462
6.26252985,2.41176462
6.26669168,2.47058821
6.27079582,2.39215684
6.27490807,2.43137264
6.27490807,2.45098042
6.27902031,2.43137264
6.28306723,2.43137264
6.28306723,2.41176462
6.28722095,2.39215684
6.29131651,2.41176462
6.29543734,2.45098042
6.29543734,2.49019599
6.29946756,2.54901958
6.3035965,2.52941179
6.30772543,2.56862736
6.30772543,2.54901958
6.31170654,2.52941179
6.31583548,2.52941179
6.32007074,2.52941179
6.32007074,2.52941179
6.32402754,2.50980401
6.32814789,2.54901958
6.33221102,2.52941179
6.33627462,2.54901958
6.34040308,2.58823538
6.34040308,2.54901958
6.34453201,2.50980401
6.34861135,2.49019599
6.35269928,2.49019599
6.35269928,2.45098042
6.35683632,2.41176462
6.36097336,2.43137264
6.36509371,2.43137264
6.36509371,2.45098042
6.36906719,2.45098042
6.37318754,2.49019599
6.37731647,2.60784316
6.38144493,2.62745094
6.38540173,2.64705873
6.38540173,2.62745094
6.38953066,2.62745094
6.39370012,2.60784316
6.39780474,2.60784316
6.39780474,2.56862736
6.40177774,2.56862736
6.40607834,2.54901958
6.41010094,2.52941179
6.41010094,2.50980401
6.41418028,2.58823538
6.41831732,2.62745094
6.42233133,2.54901958
6.42646837,2.54901958
6.43053961,2.50980401
6.43053961,2.43137264
6.43471766,2.43137264
6.43869925,2.45098042
6.44284439,2.49019599
6.44284439,2.49019599
6.44691563,2.54901958
6.45097065,2.56862736
6.4551487,2.54901958
6.4551487,2.54901958
6.45909691,2.56862736
6.46332407,2.50980401
6.4674201,2.45098042
6.47154903,2.43137264
6.47553825,2.49019599
6.47553825,2.50980401
6.47965908,2.54901958
6.48380423,2.52941179
6.48792458,2.54901958
6.48792458,2.52941179
6.4920454,2.49019599
6.49604321,2.52941179
6.50017166,2.50980401
6.50017166,2.50980401
6.50429249,2.43137264
6.50834751,2.41176462
6.51236963,2.19607854
6.51649046,2.13725495
6.52061892,2.11764717
6.52061892,2.15686274
6.52479696,2.15686274
6.52877808,2.21568632
6.53307104,2.35294127
6.53307104,2.45098042
6.53703594,2.52941179
6.5411725,2.56862736
6.54525232,2.60784316
6.54525232,2.62745094
6.54929924,2.64705873
6.55342817,2.58823538
6.55751562,2.60784316
6.56150532,2.62745094
6.56559324,2.58823538
6.56559324,2.58823538
6.56973839,2.58823538
6.57384253,2.60784316
6.57802057,2.64705873
6.57802057,2.66666675
6.58199358,2.62745094
6.58614683,2.62745094
6.59029198,2.56862736
6.59029198,2.54901958
6.59442902,2.50980401
6.59857416,2.47058821
6.60256338,2.47058821
6.60665131,2.49019599
6.61078835,2.50980401
6.61078835,2.56862736
6.61491728,2.62745094
6.61902952,2.64705873
6.62300253,2.66666675
6.62300253,2.62745094
6.62709856,2.54901958
6.6312356,2.43137264
6.63534784,2.41176462
6.63534784,2.33333325
6.63933754,2.27450991
6.6435318,2.21568632
6.64768505,2.13725495
6.64768505,2.11764717
6.65178919,2.09803915
6.65577888,2.07843137
6.65577888,2.09803915
6.65989923,2.13725495
6.66404438,2.17647052
6.66816521,2.25490189
6.66816521,2.27450991
6.67213821,2.33333325
6.67626715,2.45098042
6.68037128,2.52941179
6.68037128,2.60784316
6.68453264,2.60784316
6.68860435,2.66666675
6.69270039,2.66666675
6.69270039,2.70588231
6.69678783,2.72549009
6.70090055,2.78431368
6.70090055,2.80392146
6.70505381,2.78431368
6.70903492,2.74509811
6.71317196,2.70588231
6.71317196,2.62745094
6.7172761,2.54901958
6.72138023,2.39215684
6.72553349,2.31372547
6.72553349,2.29411769
6.72953129,2.2352941
6.73361921,2.19607854
6.73778915,2.21568632
6.73778915,2.25490189
6.7418766,2.27450991
6.74600554,2.25490189
6.74600554,2.35294127
6.75001955,2.39215684
6.75410748,2.49019599
6.75821161,2.52941179
6.75821161,2.62745094
6.76235676,2.66666675
6.76634645,2.66666675
6.77056503,2.60784316
6.77056503,2.56862736
6.77461195,2.54901958
6.77860975,2.50980401
6.78277111,2.50980401
6.78277111,2.47058821
6.78690815,2.50980401
6.7910285,2.49019599
6.7910285,2.50980401
6.79498529,2.50980401
6.79913902,2.49019599
6.80325937,2.45098042
6.80325937,2.37254906
6.80740452,2.35294127
6.81161547,2.37254906
6.81560469,2.35294127
6.81560469,2.45098042
6.81966782,2.50980401
6.82377195,2.50980401
6.82794189,2.47058821
6.82794189,2.39215684
6.83203793,2.37254906
6.83601904,2.41176462
6.84008265,2.39215684
6.84425211,2.45098042
6.84844637,2.49019599
6.84844637,2.52941179
6.85240316,2.50980401
6.8565402,2.50980401
6.86065245,2.54901958
6.86065245,2.56862736
6.86474848,2.54901958
6.8687706,2.52941179
6.87303877,2.52941179
6.87303877,2.60784316
6.87702036,2.60784316
6.88108349,2.58823538
6.88523674,2.56862736
6.88921785,2.56862736
6.89337969,2.50980401
6.89337969,2.54901958
6.89749193,2.56862736
6.90166998,2.54901958
6.9056592,2.47058821
6.9056592,2.45098042
6.90978003,2.37254906
6.91388416,2.35294127
6.91804552,2.35294127
6.91804552,2.37254906
6.922019,2.43137264
6.92613935,2.47058821
6.93026018,2.49019599
6.93447065,2.54901958
6.93857479,2.56862736
6.93857479,2.56862736
6.94259691,2.52941179
6.94666052,2.43137264
6.95077276,2.41176462
6.95077276,2.37254906
6.95495081,2.33333325
6.95903826,2.29411769
6.96304417,2.29411769
6.96304417,2.27450991
6.96714878,2.29411769
6.97131824,2.33333325
6.97546339,2.45098042
6.9794445,2.47058821
6.98358154,2.47058821
6.98358154,2.41176462
6.98771858,2.39215684
6.9917984,2.29411769
6.99582863,2.27450991
6.99582863,2.25490189
7.0001049,2.31372547
7.0040617,2.29411769
7.00817394,2.29411769
7.00817394,2.31372547
7.01215553,2.25490189
7.01627588,2.21568632
7.02045393,2.19607854
7.02452517,2.17647052
7.02863789,2.21568632
7.02863789,2.31372547
7.03271723,2.37254906
7.03683805,2.43137264
7.04096651,2.47058821
7.04096651,2.47058821
7.04507065,2.47058821
7.04908514,2.49019599
7.05318928,2.50980401
7.05318928,2.52941179
7.05732632,2.50980401
7.06145477,2.54901958
7.0655756,2.54901958
7.06958151,2.58823538
7.07365274,2.56862736
7.07365274,2.62745094
7.07777309,2.62745094
7.08194304,2.66666675
7.08605528,2.58823538
7.08605528,2.56862736
7.09003687,2.52941179
7.09414911,2.52941179
7.09832716,2.50980401
7.09832716,2.50980401
7.10233307,2.49019599
7.10644531,2.50980401
7.11058235,2.47058821
7.1146946,2.47058821
7.11882353,2.49019599
7.11882353,2.50980401
7.12281275,2.50980401
7.12692547,2.52941179
7.13115215,2.58823538
7.13115215,2.62745094
7.13514185,2.64705873
7.13914776,2.66666675
7.14333391,2.68627453
7.14333391,2.64705873
7.14742994,2.64705873
7.15152597,2.62745094
7.15564632,2.60784316
7.15564632,2.60784316
7.15973425,2.60784316
7.16380548,2.56862736
7.16380548,2.49019599
7.16796732,2.45098042
7.17208767,2.45098042
7.17607737,2.47058821
7.17607737,2.52941179
7.18015671,2.54901958
7.18433475,2.56862736
7.18845558,2.50980401
7.18845558,2.47058821
7.1924448,2.43137264
7.19647551,2.41176462
7.20059586,2.47058821
7.20059586,2.54901958
7.20481491,2.64705873
7.20891094,2.66666675
7.20891094,2.68627453
7.21303129,2.72549009
7.21705389,2.68627453
7.22119904,2.56862736
7.22119904,2.50980401
7.2253356,2.43137264
7.2293663,2.33333325
7.23344612,2.31372547
7.23344612,2.33333325
7.23759127,2.31372547
7.24171972,2.29411769
7.2460041,2.33333325
7.2460041,2.37254906
7.24982166,2.39215684
7.25396681,2.37254906
7.25396681,2.43137264
7.25802183,2.39215684
7.26210976,2.35294127
7.26610756,2.29411769
7.26610756,2.27450991
7.27032614,2.27450991
7.27440596,2.31372547
7.2785182,2.35294127
7.2785182,2.43137264
7.28258991,2.45098042
7.28670216,2.43137264
7.29079008,2.43137264
7.29079008,2.39215684
7.29494333,2.35294127
7.29904747,2.35294127
7.29904747,2.37254906
7.30302858,2.41176462
7.3071413,2.49019599
7.31127787,2.50980401
7.31127787,2.56862736
7.31538248,2.64705873
7.31934738,2.66666675
7.32351685,2.64705873
7.32351685,2.64705873
7.32761288,2.64705873
7.33179092,2.54901958
7.33591127,2.56862736
7.33591127,2.58823538
7.33999109,2.56862736
7.3439889,2.58823538
7.34815025,2.52941179
7.35209084,2.52941179
7.35621929,2.52941179
7.35621929,2.50980401
7.36034012,2.50980401
7.36449337,2.45098042
7.36859751,2.45098042
7.36859751,2.41176462
7.37259531,2.41176462
7.37672377,2.43137264
7.38083649,2.43137264
7.38083649,2.47058821
7.38498974,2.49019599
7.38891363,2.52941179
7.393116,2.58823538
7.39726973,2.60784316
7.40136528,2.60784316
7.40136528,2.64705873
7.40551043,2.66666675
7.40948391,2.68627453
7.41362095,2.68627453
7.41362095,2.70588231
7.41772509,2.70588231
7.42188644,2.66666675
7.42600727,2.60784316
7.42600727,2.56862736
7.43002939,2.56862736
7.43414164,2.56862736
7.43823767,2.68627453
7.44225168,2.74509811
7.4463315,2.74509811
7.4463315,2.7647059
7.45050097,2.74509811
7.45458078,2.68627453
7.45875025,2.62745094
7.45875025,2.54901958
7.46278095,2.50980401
7.4668932,2.43137264
7.47103834,2.43137264
7.47103834,2.41176462
7.47515106,2.47058821
7.47907495,2.50980401
7.48326111,2.47058821
7.48740625,2.39215684
7.4914937,2.33333325
7.4914937,2.33333325
7.49552441,2.27450991
7.49962854,2.21568632
7.5037818,2.21568632
7.5037818,2.2352941
7.50795984,2.15686274
7.51203108,2.19607854
7.51602077,2.25490189
7.51602077,2.29411769
7.52026415,2.37254906
7.52429485,2.45098042
7.5283823,2.43137264
7.5323801,2.43137264
7.53650904,2.43137264
7.53650904,2.35294127
7.54060507,2.27450991
7.54478264,2.19607854
7.54891157,2.21568632
7.54891157,2.17647052
7.5530324,2.19607854
7.55702972,2.21568632
7.56115055,2.29411769
7.56115055,2.33333325
7.56521368,2.33333325
7.5692277,2.37254906
7.57329941,2.47058821
7.57750988,2.45098042
7.58170414,2.49019599
7.58170414,2.56862736
7.58564472,2.56862736
7.58974886,2.54901958
7.59402514,2.56862736
7.59402514,2.62745094
7.59805536,2.64705873
7.60213518,2.70588231
7.6061492,2.70588231
7.6061492,2.66666675
7.61027765,2.66666675
7.61441469,2.66666675
7.61852741,2.64705873
7.62258244,2.62745094
7.62669468,2.58823538
7.62669468,2.49019599
7.63082361,2.43137264
7.63489485,2.41176462
7.6390152,2.35294127
7.6390152,2.35294127
7.64308691,2.41176462
7.64718294,2.41176462
7.65120506,2.41176462
7.65120506,2.47058821
7.65538311,2.49019599
7.65938902,2.43137264
7.66352606,2.41176462
7.66352606,2.39215684
7.66766262,2.43137264
7.67178345,2.45098042
7.67178345,2.49019599
7.67575645,2.52941179
7.68001652,2.58823538
7.68401384,2.56862736
7.68401384,2.52941179
7.68808556,2.52941179
7.69225502,2.50980401
7.69620371,2.50980401
7.69620371,2.49019599
7.70038986,2.52941179
7.70445299,2.58823538
7.70862293,2.56862736
7.70862293,2.60784316
7.71261215,2.60784316
7.71673298,2.64705873
7.71673298,2.64705873
7.72091103,2.66666675
7.72503138,2.60784316
7.72907829,2.56862736
7.72907829,2.52941179
7.73315811,2.49019599
7.73727846,2.47058821
7.74143982,2.47058821
7.74143982,2.47058821
7.74558496,2.49019599
7.74956656,2.49019599
7.7536869,2.52941179
7.7536869,2.64705873
7.75774193,2.64705873
7.76189566,2.62745094
7.76189566,2.60784316
7.76605701,2.56862736
7.77003813,2.49019599
7.77414227,2.37254906
7.77414227,2.29411769
7.77826309,2.21568632
7.78244114,2.21568632
7.78646326,2.15686274
7.78646326,2.13725495
7.79059219,2.19607854
7.79469633,2.21568632
7.79884958,2.29411769
7.79884958,2.35294127
7.80273247,2.39215684
7.80703354,2.39215684
7.81103086,2.39215684
7.81511879,2.39215684
7.81923103,2.47058821
7.81923103,2.58823538
7.82320452,2.68627453
7.82737398,2.64705873
7.83151913,2.68627453
7.83151913,2.66666675
7.83564806,2.60784316
7.83962107,2.47058821
7.84378242,2.37254906
7.84378242,2.31372547
7.84790325,2.21568632
7.8520236,2.19607854
7.8560133,2.27450991
7.86015844,2.33333325
7.86427069,2.35294127
7.86427069,2.37254906
7.86840773,2.41176462
7.87239742,2.43137264
7.87646866,2.45098042
7.87646866,2.45098042
7.88059759,2.50980401
7.88477564,2.52941179
7.88881397,2.52941179
7.88881397,2.49019599
7.89298391,2.56862736
7.89704704,2.58823538
7.90115118,2.56862736
7.90527201,2.50980401
7.90940046,2.41176462
7.90940046,2.37254906
7.91338205,2.25490189
7.9175272,2.21568632
7.92164755,2.21568632
7.92164755,2.27450991
7.92565346,2.27450991
7.92974138,2.37254906
7.93401766,2.47058821
7.93401766,2.56862736
7.93802357,2.64705873
7.94211102,2.68627453
7.9460597,2.70588231
7.95023775,2.72549009
7.95436668,2.74509811
7.95436668,2.74509811
7.95851994,2.7647059
7.96253395,2.74509811
7.9666543,2.72549009
7.9666543,2.68627453
7.97078323,2.62745094
7.97489548,2.62745094
7.97896719,2.70588231
7.97896719,2.72549009
7.98301411,2.78431368
7.98715067,2.78431368
7.9912715,2.70588231
7.99540043,2.64705873
7.99952078,2.56862736
7.99952078,2.50980401
8.00350189,2.50980401
8.0075655,2.52941179
8.01173496,2.54901958
8.01173496,2.52941179
8.01570034,2.58823538
8.01996803,2.64705873
8.02401447,2.68627453
8.02401447,2.64705873
8.02817631,2.62745094
8.03230476,2.56862736
8.03627014,2.43137264
8.04040718,2.35294127
8.04451942,2.33333325
8.04451942,2.21568632
8.04864788,2.21568632
8.05262089,2.21568632
8.05677509,2.25490189
8.05677509,2.21568632
8.06090355,2.27450991
8.06495857,2.25490189
8.06908703,2.27450991
8.06908703,2.31372547
8.07309341,2.37254906
8.07720566,2.39215684
8.08138371,2.50980401
8.08552837,2.50980401
8.08952618,2.50980401
8.08952618,2.50980401
8.09362221,2.54901958
8.09776783,2.52941179
8.10190392,2.60784316
8.10190392,2.58823538
8.10601711,2.52941179
8.10999012,2.49019599
8.11413479,2.47058821
8.11413479,2.43137264
8.11827183,2.39215684
8.12240124,2.41176462
8.12631607,2.37254906
8.13046169,2.39215684
8.13461494,2.39215684
8.13461494,2.45098042
8.13868618,2.50980401
8.14273357,2.52941179
8.14706707,2.54901958
8.14706707,2.60784316
8.15094185,2.64705873
8.15515232,2.66666675
8.15928936,2.70588231
8.15928936,2.68627453
8.16326237,2.60784316
8.16739941,2.54901958
8.17152023,2.49019599
8.17152023,2.41176462
8.17564869,2.37254906
8.17963791,2.29411769
8.17963791,2.29411769
8.18375111,2.2352941
8.18787098,2.17647052
8.19209003,2.19607854
8.19209003,2.21568632
8.19603825,2.29411769
8.20014286,2.43137264
8.20429611,2.54901958
8.20429611,2.66666675
8.20841694,2.7647059
8.21253777,2.74509811
8.2165184,2.74509811
8.2165184,2.72549009
8.22068024,2.62745094
8.22478485,2.52941179
8.22478485,2.41176462
8.22888851,2.33333325
8.23304176,2.35294127
8.23701477,2.35294127
8.23701477,2.39215684
8.24111938,2.43137264
8.24524021,2.49019599
8.24940968,2.50980401
8.24940968,2.49019599
8.25344849,2.52941179
8.25752735,2.58823538
8.26168919,2.56862736
8.26168919,2.56862736
8.26576042,2.50980401
8.26981544,2.54901958
8.26981544,2.49019599
8.27401829,2.49019599
8.27801609,2.47058821
8.28213692,2.49019599
8.28213692,2.52941179
8.28614235,2.50980401
8.29025459,2.52941179
8.29440784,2.52941179
8.29440784,2.56862736
8.29855347,2.50980401
8.3026247,2.45098042
8.30663109,2.39215684
8.30663109,2.37254906
8.31073475,2.29411769
8.31484699,2.29411769
8.31900024,2.49019599
8.32294083,2.50980401
8.32711887,2.52941179
8.32711887,2.62745094
8.33122349,2.66666675
8.33537674,2.60784316
8.33952999,2.60784316
8.33952999,2.56862736
8.34349442,2.49019599
8.34767246,2.37254906
8.35178471,2.29411769
8.35178471,2.17647052
8.35590553,2.15686274
8.36001778,2.19607854
8.36399078,2.21568632
8.36808681,2.27450991
8.37233067,2.35294127
8.37233067,2.39215684
8.37631989,2.45098042
8.38044071,2.54901958
8.38453674,2.54901958
8.38453674,2.60784316
8.38863277,2.64705873
8.39267921,2.68627453
8.39680862,2.72549009
8.39680862,2.70588231
8.40083027,2.7647059
8.4049921,2.74509811
8.40916157,2.64705873
8.41315937,2.56862736
8.41726398,2.58823538
8.41726398,2.54901958
8.42140865,2.49019599
8.42552948,2.54901958
8.42964172,2.54901958
8.42964172,2.47058821
8.43364716,2.49019599
8.43774319,2.45098042
8.44186401,2.43137264
8.44186401,2.37254906
8.44595242,2.27450991
8.45001507,2.31372547
8.45407867,2.35294127
8.45824814,2.43137264
8.46239376,2.52941179
8.46239376,2.60784316
8.46638298,2.60784316
8.47049522,2.64705873
8.47463226,2.62745094
8.47463226,2.66666675
8.47871971,2.66666675
8.48270988,2.62745094
8.48701859,2.64705873
8.48701859,2.60784316
8.4910574,2.60784316
8.49517727,2.62745094
8.49933147,2.68627453
8.50333691,2.62745094
8.50742435,2.60784316
8.50742435,2.58823538
8.51151276,2.56862736
8.51563358,2.56862736
8.51984406,2.50980401
8.51984406,2.49019599
8.52368546,2.47058821
8.52785587,2.45098042
8.53205013,2.41176462
8.53205013,2.43137264
8.53615379,2.45098042
8.54013538,2.47058821
8.54427242,2.45098042
8.54841709,2.41176462
8.55252171,2.29411769
8.55252171,2.2352941
8.55651093,2.17647052
8.56062317,2.13725495
8.56471157,2.13725495
8.56471157,1.9803921
8.5688324,1.92156863
8.57298565,1.82352936
8.57693386,1.82352936
8.57693386,1.82352936
8.58111954,1.86274505
8.58525658,1.90196073
8.58939362,2.0392158
8.59336662,2.07843137
8.59751225,2.13725495
8.59751225,2.13725495
8.60162449,2.15686274
8.60577011,2.19607854
8.60990715,2.29411769
8.60990715,2.31372547
8.61402702,2.41176462
8.61808205,2.58823538
8.62220287,2.68627453
8.62220287,2.72549009
8.62617588,2.74509811
8.63030434,2.72549009
8.63440037,2.68627453
8.63440037,2.66666675
8.63851357,2.60784316
8.64264202,2.56862736
8.64264202,2.58823538
8.64659882,2.58823538
8.65075207,2.47058821
8.65489674,2.37254906
8.65489674,2.31372547
8.65902615,2.17647052
8.66302395,2.01960778
8.66712761,1.86274505
8.66712761,1.86274505
8.67127323,1.90196073
8.67540169,2
8.67949772,2.11764717
8.67949772,2.29411769
8.68349552,2.47058821
8.68760777,2.52941179
8.68760777,2.62745094
8.69175339,2.72549009
8.69581604,2.80392146
8.70000267,2.84313726
8.70000267,2.90196085
8.7039423,2.84313726
8.70810413,2.82352948
8.71225739,2.78431368
8.71225739,2.70588231
8.71623898,2.66666675
8.72037601,2.62745094
8.72452927,2.54901958
8.72452927,2.52941179
8.72859192,2.50980401
8.73278713,2.50980401
8.73278713,2.50980401
8.73680878,2.52941179
8.74108505,2.50980401
8.74505806,2.47058821
8.74505806,2.41176462
8.74920368,2.35294127
8.7531929,2.27450991
8.75732136,2.29411769
8.75732136,2.35294127
8.76138496,2.43137264
8.76550579,2.49019599
8.76970005,2.66666675
8.76970005,2.82352948
8.77364063,2.92156863
8.77776051,3.01960778
8.77776051,3.0392158
8.78190613,3.09803915
8.7860508,3.01960778
8.79008198,2.9607842
8.79008198,2.88235283
8.79420185,2.86274505
8.79836369,2.80392146
8.80245972,2.80392146
8.80245972,2.7647059
8.80644894,2.72549009
8.81054497,2.68627453
8.81469059,2.62745094
8.81469059,2.58823538
8.81881046,2.66666675
8.82289028,2.62745094
8.82700253,2.60784316
8.83104992,2.60784316
8.83518696,2.56862736
8.83518696,2.54901958
8.83927441,2.54901958
8.84326363,2.56862736
8.84742546,2.50980401
8.84742546,2.41176462
8.85157871,2.33333325
8.85570812,2.29411769
8.859828,2.17647052
8.859828,2.13725495
8.86379337,2.07843137
8.86807728,2.07843137
8.87207508,2.17647052
8.87620449,2.21568632
8.88013649,2.29411769
8.88013649,2.41176462
8.88428974,2.43137264
8.88838577,2.45098042
8.89248943,2.49019599
8.89248943,2.49019599
8.89656925,2.52941179
8.90066528,2.62745094
8.90476131,2.66666675
8.90476131,2.68627453
8.90889835,2.74509811
8.9129858,2.7647059
8.9169836,2.90196085
8.92113686,2.90196085
8.92526627,2.92156863
8.92526627,2.92156863
8.92935371,2.92156863
8.93336773,2.88235283
8.93751335,2.90196085
8.93751335,2.94117641
8.94161701,2.98039222
8.94568062,2.92156863
8.94985867,2.84313726
8.94985867,2.68627453
8.95397854,2.54901958
8.95796013,2.37254906
8.96210575,2.09803915
8.96628284,1.9803921
8.97026443,1.90196073
8.97026443,1.88235295
8.97438526,1.82352936
8.97846508,1.82352936
8.98260212,1.86274505
8.98260212,1.88235295
8.98662376,1.96078432
8.99074459,2.05882359
8.99496365,2.15686274
8.99496365,2.25490189
8.99901009,2.37254906
9.0031805,2.39215684
9.00721073,2.45098042
9.01129818,2.43137264
9.01536942,2.43137264
9.01536942,2.43137264
9.01954746,2.41176462
9.02352047,2.41176462
9.02763271,2.31372547
9.02763271,2.25490189
9.03176975,2.17647052
9.03587437,2.11764717
9.04001141,2.05882359
9.04001141,2.01960778
9.04400921,1.94117641
9.04816246,1.90196073
9.05226612,1.80392158
9.05638695,1.82352936
9.06036854,1.84313726
9.06036854,1.88235295
9.06453037,1.9803921
9.06859303,2.09803915
9.07268143,2.17647052
9.07268143,2.37254906
9.07673645,2.52941179
9.08086491,2.66666675
9.08501816,2.80392146
9.08501816,2.90196085
9.08913898,3.0392158
9.09326744,3.15686274
9.09726524,3.49019599
9.1013937,3.54901958
9.10550594,3.62745094
9.10550594,3.66666675
9.10951233,3.60784316
9.11359978,3.49019599
9.11772919,3.35294127
9.11772919,3.13725495
9.12190628,2.9607842
9.1260767,2.72549009
9.13018894,2.50980401
9.13018894,2.41176462
9.13413715,2.35294127
9.13825798,2.29411769
9.14237881,2.25490189
9.14237881,2.31372547
9.14643383,2.29411769
9.15044785,2.27450991
9.15044785,2.25490189
9.15454388,2.33333325
9.15873814,2.37254906
9.16291618,2.41176462
9.16291618,2.45098042
9.16700363,2.56862736
9.17100143,2.58823538
9.17515469,2.66666675
9.17515469,2.82352948
9.1792345,2.84313726
9.18327332,2.90196085
9.18734455,2.94117641
9.18734455,2.94117641
9.19147301,2.86274505
9.19557762,2.88235283
9.19557762,2.90196085
9.19963264,2.88235283
9.2036953,2.94117641
9.20799637,2.9607842
9.20799637,2.98039222
9.21199417,2.98039222
9.21616364,3
9.22014523,3
9.22014523,2.92156863
9.22426605,2.82352948
9.22830391,2.66666675
9.23251534,2.49019599
9.23251534,2.37254906
9.23651314,2.25490189
9.2406826,2.11764717
9.2406826,2.0392158
9.24481106,2.01960778
9.24893188,2.01960778
9.25307655,2.0392158
9.25307655,2.05882359
9.25704193,2.19607854
9.26112938,2.2352941
9.26525879,2.25490189
9.26525879,2.33333325
9.26943684,2.35294127
9.27338505,2.33333325
9.27750587,2.35294127
9.27750587,2.41176462
9.28168392,2.45098042
9.28582859,2.45098042
9.28582859,2.49019599
9.28983402,2.52941179
9.29407787,2.56862736
9.29809189,2.56862736
9.29809189,2.58823538
9.30220413,2.60784316
9.30629253,2.58823538
9.31029034,2.56862736
9.31029034,2.45098042
9.3144846,2.43137264
9.31858826,2.35294127
9.32265949,2.19607854
9.32265949,2.0392158
9.3266325,1.96078432
9.33079433,1.88235295
9.33489037,1.84313726
9.33900261,1.82352936
9.34313965,1.84313726
9.34313965,1.84313726
9.34718704,1.86274505
9.35133171,1.86274505
9.35545254,1.88235295
9.35545254,1.96078432
9.35958099,2
9.36354637,2.0392158
9.36767483,2.09803915
9.36767483,2.13725495
9.37181187,2.11764717
9.37594891,2.2352941
9.38002872,2.39215684
9.38405037,2.45098042
9.38813019,2.54901958
9.38813019,2.62745094
9.39225864,2.68627453
9.39643669,2.78431368
9.40037727,2.82352948
9.40037727,2.82352948
9.4044981,2.80392146
9.40867615,2.72549009
9.41282082,2.64705873
9.41282082,2.56862736
9.41680241,2.47058821
9.42107868,2.45098042
9.42506027,2.27450991
9.42914772,2.19607854
9.4333334,2.09803915
9.4333334,2.07843137
9.43731499,2.0392158
9.44142723,2
9.44553947,2.0392158
9.44553947,2.01960778
9.44962788,2.01960778
9.45360088,2.0392158
9.45770454,2.05882359
9.45770454,2.05882359
9.46185875,2.09803915
9.46604443,2.05882359
9.47002602,2.05882359
9.47415447,2.05882359
9.47824192,2.09803915
9.47824192,2.11764717
9.48241234,2.15686274
9.48640156,2.21568632
9.49052238,2.17647052
9.49052238,2.27450991
9.49465084,2.31372547
9.49877167,2.35294127
9.50282669,2.37254906
9.50282669,2.39215684
9.50696373,2.37254906
9.51094437,2.35294127
9.51512241,2.31372547
9.51920223,2.33333325
9.52339649,2.39215684
9.52339649,2.39215684
9.52732086,2.52941179
9.53155613,2.54901958
9.53563499,2.70588231
9.53563499,2.7647059
9.53977203,2.90196085
9.54375362,2.9607842
9.54803848,2.94117641
9.54803848,3
9.5520277,3
9.55614853,3.01960778
9.56025219,3
9.56420898,3
9.56836224,2.92156863
9.56836224,2.92156863
9.57244205,2.88235283
9.5766201,2.82352948
9.58059311,2.78431368
9.58059311,2.72549009
9.58474636,2.64705873
9.58887482,2.54901958
9.59302044,2.45098042
9.59302044,2.39215684
9.59702587,2.39215684
9.6011219,2.37254906
9.60527611,2.29411769
9.60940456,2.29411769
9.6135006,2.27450991
9.6135006,2.2352941
9.6174984,2.2352941
9.62163544,2.27450991
9.62575531,2.33333325
9.62575531,2.43137264
9.6297369,2.52941179
9.63396358,2.60784316
9.63796997,2.78431368
9.63796997,2.88235283
9.6420908,2.98039222
9.64626026,3.01960778
9.65020847,3.05882359
9.65020847,3.0392158
9.6543951,3.07843137
9.65849113,3.0392158
9.65849113,3.01960778
9.6626358,3.01960778
9.66662598,2.98039222
9.67075443,2.88235283
9.67075443,2.86274505
9.67488289,2.84313726
9.67895412,2.80392146
9.68314075,2.78431368
9.68314075,2.78431368
9.68712234,2.7647059
9.69119358,2.7647059
9.69529724,2.74509811
9.69529724,2.72549009
9.69947529,2.70588231
9.70359612,2.64705873
9.70359612,2.50980401
9.70761871,2.47058821
9.71170616,2.43137264
9.71589184,2.37254906
9.71589184,2.35294127
9.71998024,2.41176462
9.72397804,2.43137264
9.7281065,2.49019599
9.7281065,2.54901958
9.73225975,2.56862736
9.73638821,2.68627453
9.7403698,2.80392146
9.7403698,2.92156863
9.74451542,3.0392158
9.74864388,3.15686274
9.74864388,3.27450991
9.75278091,3.37254906
9.75681973,3.39215684
9.76101398,3.37254906
9.76101398,3.35294127
9.7650032,3.19607854
9.76915646,3.11764717
9.7732687,2.98039222
9.7732687,2.90196085
9.77725029,2.84313726
9.78137875,2.80392146
9.78549099,2.74509811
9.78549099,2.66666675
9.78963661,2.58823538
9.79376507,2.47058821
9.79376507,2.37254906
9.79771423,2.27450991
9.80189228,2.13725495
9.80600452,2.01960778
9.80600452,1.94117641
9.81011677,1.90196073
9.81413841,1.88235295
9.81824303,1.90196073
9.81824303,1.94117641
9.82230663,2
9.82648468,2.01960778
9.83045769,2.05882359
9.83045769,2.13725495
9.83461094,2.15686274
9.83876419,2.2352941
9.84286785,2.27450991
9.84700489,2.21568632
9.85099506,2.15686274
9.85099506,2.07843137
9.85513973,2.01960778
9.85926819,1.9803921
9.86336422,1.96078432
9.86336422,1.9803921
9.86735439,2
9.87157345,2.05882359
9.87567711,2.15686274
9.87567711,2.25490189
9.87981415,2.37254906
9.88377094,2.41176462
9.88799763,2.47058821
9.89203644,2.45098042
9.89616585,2.41176462
9.89616585,2.41176462
9.90012169,2.29411769
9.9042511,2.17647052
9.90847015,2.11764717
9.90847015,2
9.91257381,1.86274505
9.91670227,1.80392158
9.92071724,1.7647059
9.92071724,1.78431368
9.9248209,1.7647059
9.92892551,1.80392158
9.93307018,2
9.93702698,2.13725495
9.94113159,2.2352941
9.94113159,2.33333325
9.94521904,2.43137264
9.94933128,2.43137264
9.95345211,2.43137264
9.95345211,2.50980401
9.95756435,2.62745094
9.96162796,2.74509811
9.96577263,2.82352948
9.96577263,2.92156863
9.96993446,2.9607842
9.9740715,2.90196085
9.97806931,2.86274505
9.98223019,2.78431368
9.98630238,2.74509811
9.98630238,2.68627453
9.99029922,2.66666675
9.99441242,2.60784316
9.99855709,2.58823538
9.99855709,2.52941179
10.00264454,2.47058821
10.00669956,2.31372547
10.01078796,2.25490189
10.01078796,2.15686274
10.01500702,2.07843137
10.01903725,2.01960778
10.02313328,2.05882359
10.0271225,2.09803915
10.03127575,2.21568632
10.03127575,2.33333325
10.03542137,2.52941179
10.03961563,2.72549009
10.04367065,2.90196085
10.04367065,3.0392158
10.04770947,3.13725495
10.0518055,3.2352941
10.05592537,3.29411769
10.05592537,3.29411769
10.06007099,3.27450991
10.0640192,3.17647052
10.06818962,3
10.07225227,2.94117641
10.0763731,2.86274505
10.0763731,2.80392146
10.08033752,2.70588231
10.08444214,2.62745094
10.08859539,2.50980401
10.08859539,2.33333325
10.09269142,2.15686274
10.09677887,2.07843137
10.10100651,2
10.10100651,1.94117641
10.10500431,1.94117641
10.10913277,1.9803921
10.11324501,2.21568632
10.11724281,2.35294127
10.12135506,2.49019599
10.12135506,2.56862736
10.12551689,2.54901958
10.12962055,2.50980401
10.13369274,2.43137264
10.13369274,2.39215684
10.13770676,2.33333325
10.141819,2.25490189
10.14600468,2.19607854
10.14600468,2.15686274
10.15014172,2.13725495
10.1540575,2.11764717
10.15824413,2.13725495
10.15824413,2.29411769
10.16242218,2.39215684
10.16651821,2.47058821
10.16651821,2.58823538
10.17050743,2.66666675
10.17461967,2.74509811
10.17878914,2.80392146
10.17878914,2.86274505
10.18288517,2.88235283
10.18694019,2.86274505
10.19099522,2.7647059
10.19099522,2.68627453
10.19505882,2.60784316
10.19921207,2.47058821
10.20329952,2.35294127
10.20329952,2.2352941
10.20733833,2.13725495
10.2115078,2.01960778
10.2115078,1.96078432
10.21564484,1.94117641
10.21970844,1.96078432
10.22386169,1.96078432
10.22386169,2.01960778
10.22801495,2.0392158
10.23201275,2.17647052
10.23611736,2.25490189
10.23611736,2.37254906
10.24026203,2.50980401
10.24423504,2.60784316
10.24835587,2.7647059
10.24835587,2.84313726
10.25248432,2.9607842
10.25653934,3.09803915
10.25653934,3.19607854
10.26060295,3.2352941
10.26472378,3.2352941
10.26881981,3.29411769
10.26881981,3.29411769
10.27301407,3.29411769
10.27698708,3.27450991
10.28109074,3.21568632
10.28109074,3.21568632
10.28523636,3.11764717
10.28935719,2.94117641
10.29351044,2.80392146
10.29351044,2.72549009
10.29749966,2.50980401
10.3016119,2.39215684
10.3016119,2.31372547
10.30575752,2.2352941
10.30988598,2.11764717
10.31398201,2.0392158
10.31398201,2.01960778
10.31793022,1.96078432
10.32210064,1.94117641
10.32616329,1.92156863
10.32616329,1.92156863
10.33027554,1.96078432
10.33436394,2.0392158
10.33848381,2.21568632
10.33848381,2.39215684
10.34262085,2.52941179
10.34674168,2.70588231
10.35073948,2.88235283
10.35500717,3
10.35902119,3.09803915
10.35902119,3.15686274
10.3631258,3.19607854
10.3671236,3.17647052
10.37123585,3.13725495
10.37123585,3.07843137
10.3753233,2.9607842
10.37946033,2.82352948
10.38358974,2.66666675
10.38358974,2.54901958
10.38755417,2.39215684
10.391716,2.31372547
10.39588547,2.17647052
10.3999815,2.19607854
10.40411854,2.0392158
10.40411854,1.94117641
10.40811634,1.92156863
10.41220379,1.80392158
10.41635704,1.70588231
10.41635704,1.70588231
10.42039585,1.66666663
10.42448425,1.72549021
10.4286375,1.78431368
10.4286375,1.82352936
10.43269253,1.88235295
10.43686199,2
10.44098282,2.25490189
10.44491482,2.37254906
10.44905949,2.45098042
10.44905949,2.56862736
10.45321274,2.66666675
10.45724392,2.78431368
10.46136379,2.88235283
10.46136379,2.94117641
10.465518,2.90196085
10.46960545,2.90196085
10.4737339,2.7647059
10.4737339,2.58823538
10.47774029,2.43137264
10.4819994,2.27450991
10.48598957,1.9803921
10.49013424,1.94117641
10.49425507,1.82352936
10.49425507,1.7647059
10.49825287,1.74509799
10.5024147,1.68627453
10.50656796,1.60784316
10.50656796,1.58823526
10.51051617,1.50980389
10.51462078,1.52941179
10.51876545,1.64705884
10.51876545,1.78431368
10.52287006,1.9803921
10.52699852,2.19607854
10.53097153,2.64705873
10.53509235,2.86274505
10.53926182,3.09803915
10.53926182,3.11764717
10.54339027,3.17647052
10.54738045,3.21568632
10.55148411,3.13725495
10.55148411,3.0392158
10.55563736,3.01960778
10.55970955,2.9607842
10.56382942,2.86274505
10.56382942,2.80392146
10.56793404,2.7647059
10.57190704,2.68627453
10.57607651,2.60784316
10.58020592,2.58823538
10.58424377,2.60784316
10.58424377,2.58823538
10.58837318,2.58823538
10.59250164,2.56862736
10.59659767,2.62745094
10.59659767,2.62745094
10.60063648,2.60784316
10.60473251,2.64705873
10.60888577,2.58823538
10.60888577,2.54901958
10.61299801,2.52941179
10.61712646,2.50980401
10.62110043,2.50980401
10.62529469,2.50980401
10.62944794,2.47058821
10.62944794,2.52941179
10.63352776,2.62745094
10.63749218,2.82352948
10.64162922,3
10.64162922,3.0392158
10.64577389,3.01960778
10.64986992,3.09803915
10.65399075,3.0392158
10.65399075,2.90196085
10.65802956,2.80392146
10.66215038,2.74509811
10.66631126,2.66666675
10.66631126,2.56862736
10.6704483,2.50980401
10.67442131,2.47058821
10.67442131,2.49019599
10.67854214,2.50980401
10.68269539,2.52941179
10.68684101,2.52941179
10.68684101,2.50980401
10.69078922,2.45098042
10.6950655,2.33333325
10.69901371,2.29411769
10.69901371,2.25490189
10.70311832,2.27450991
10.70714855,2.25490189
10.71124458,2.33333325
10.71124458,2.45098042
10.71539783,2.54901958
10.71952724,2.62745094
10.71952724,2.68627453
10.72369671,2.72549009
10.7276783,2.74509811
10.73181534,2.72549009
10.73181534,2.74509811
10.73592758,2.74509811
10.74006462,2.64705873
10.74418449,2.60784316
10.74418449,2.50980401
10.74819088,2.35294127
10.75229454,2.21568632
10.75643158,2.13725495
10.75643158,2.09803915
10.76051998,2.0392158
10.76450062,2.01960778
10.76450062,2.05882359
10.76865387,2.15686274
10.77275848,2.13725495
10.7768631,2.19607854
10.7768631,2.29411769
10.78100777,2.35294127
10.78503799,2.31372547
10.78919983,2.29411769
10.78919983,2.31372547
10.79331207,2.29411769
10.79728508,2.31372547
10.80141449,2.31372547
10.80141449,2.29411769
10.80555153,2.25490189
10.80967999,2.19607854
10.80967999,2.07843137
10.81376743,2.01960778
10.81779861,1.94117641
10.8220005,1.88235295
10.8220005,1.80392158
10.82599831,1.7647059
10.83009434,1.74509799
10.83419037,1.74509799
10.83419037,1.78431368
10.8382206,1.84313726
10.84237385,1.86274505
10.84647846,1.90196073
10.84647846,1.94117641
10.85049248,2.0392158
10.85463715,2.19607854
10.85875034,2.54901958
10.862854,2.62745094
10.86699963,2.78431368
10.86699963,2.88235283
10.87097263,2.94117641
10.87507629,2.94117641
10.87922955,3
10.87922955,3.09803915
10.88330936,3.13725495
10.88733196,3.13725495
10.891469,3.15686274
10.891469,3.15686274
10.89562225,3.13725495
10.89974308,3.17647052
10.90388012,3.05882359
10.90799999,2.98039222
10.91194916,2.86274505
10.91194916,2.74509811
10.91610241,2.68627453
10.92025566,2.64705873
10.92438412,2.66666675
10.92438412,2.70588231
10.92831612,2.70588231
10.93248653,2.80392146
10.93660641,2.88235283
10.93660641,2.88235283
10.94071865,2.92156863
10.94465923,2.92156863
10.94884586,2.84313726
10.95294189,2.78431368
10.95712757,2.72549009
10.95712757,2.66666675
10.96112537,2.66666675
10.965271,2.58823538
10.96937466,2.52941179
10.96937466,2.50980401
10.97350311,2.52941179
10.9775095,2.62745094
10.98162174,2.74509811
10.98162174,2.82352948
10.98574257,2.94117641
10.98983002,3
10.99399948,3
10.99797344,2.9607842
11.0020771,2.90196085
11.0020771,2.88235283
11.00617313,2.84313726
11.0103426,2.84313726
11.01443863,2.74509811
11.01443863,2.68627453
11.01847744,2.58823538
11.02262306,2.45098042
11.0267601,2.2352941
11.0267601,2.01960778
11.03074932,1.86274505
11.0350008,1.74509799
11.03899002,1.64705884
11.04313564,1.60784316
11.04723167,1.58823526
11.04723167,1.62745094
11.05122089,1.66666663
11.05537415,1.68627453
11.05948639,1.88235295
11.05948639,1.9803921
11.06355858,2.09803915
11.06751442,2.2352941
11.07171726,2.33333325
11.07171726,2.43137264
11.0757885,2.54901958
11.08003235,2.68627453
11.08409595,2.86274505
11.08812618,2.94117641
11.09223843,2.9607842
11.09223843,2.98039222
11.09635925,3.07843137
11.1005125,3.11764717
11.10449314,3.11764717
11.10449314,3.05882359
11.10863018,3.0392158
11.11275101,2.9607842
11.11687183,2.88235283
11.11687183,2.80392146
11.12098408,2.64705873
11.12498188,2.54901958
11.12908554,2.27450991
11.13315773,2.13725495
11.13733482,2.05882359
11.13733482,1.96078432
11.14131641,1.94117641
11.14548588,1.86274505
11.14962292,1.80392158
11.14962292,1.82352936
11.15366173,1.84313726
11.15774155,1.90196073
11.16194439,2.01960778
11.16194439,2.11764717
11.16600704,2.15686274
11.17011166,2.27450991
11.17425632,2.35294127
11.17425632,2.45098042
11.17825413,2.60784316
11.18235874,2.64705873
11.18235874,2.7647059
11.18650341,2.80392146
11.19067383,2.80392146
11.19463825,2.78431368
11.19463825,2.78431368
11.19874287,2.7647059
11.20296955,2.68627453
11.20700836,2.58823538
11.20700836,2.50980401
11.21099758,2.43137264
11.21513462,2.33333325
11.21928787,2.29411769
11.21928787,2.19607854
11.2233839,2.17647052
11.22751236,2.17647052
11.22751236,2.09803915
11.23150253,2.01960778
11.23559856,1.9803921
11.23975945,1.92156863
11.23975945,1.90196073
11.24388027,1.92156863
11.24799252,1.86274505
11.25203991,1.90196073
11.25203991,1.94117641
11.25613594,2.01960778
11.2602396,2.05882359
11.26436901,2.13725495
11.26436901,2.21568632
11.26842403,2.35294127
11.27248669,2.49019599
11.27248669,2.58823538
11.2766161,2.7647059
11.28060532,2.82352948
11.28482437,2.86274505
11.28482437,2.86274505
11.28887081,2.86274505
11.29299927,2.82352948
11.29712009,2.82352948
11.29712009,2.82352948
11.30110168,2.82352948
11.30523014,2.86274505
11.30935097,2.7647059
11.30935097,2.72549009
11.31350422,2.66666675
11.31767368,2.56862736
11.31767368,2.41176462
11.32162285,2.2352941
11.32574272,2.11764717
11.32986355,1.94117641
11.32986355,1.84313726
11.33405018,1.78431368
11.33798981,1.78431368
11.34205341,1.78431368
11.34205341,1.7647059
11.34625626,1.7647059
11.35038471,1.80392158
11.35451317,1.78431368
11.35451317,1.82352936
11.35847855,1.96078432
11.36257458,2.09803915
11.36673546,2.43137264
11.37084007,2.58823538
11.37498474,2.72549009
11.37498474,2.86274505
11.3789587,2.94117641
11.38311195,2.98039222
11.38718319,2.98039222
11.38718319,2.9607842
11.39120579,2.9607842
11.39531803,2.9607842
11.39949608,2.94117641
11.39949608,2.9607842
11.40364075,2.9607842
11.40776157,2.9607842
11.41171837,2.9607842
11.41591263,3
11.42000008,2.9607842
11.42000008,2.9607842
11.42400646,2.94117641
11.42811012,2.7647059
11.43228817,2.58823538
11.43228817,2.43137264
11.43641663,2.19607854
11.44057083,2.05882359
11.44466591,1.96078432
11.44466591,1.84313726
11.44861507,1.80392158
11.4527359,1.72549021
11.45693016,1.90196073
11.46091938,2.01960778
11.46498299,2.15686274
11.46498299,2.31372547
11.46906185,2.50980401
11.47325611,2.68627453
11.47737694,2.84313726
11.47737694,2.94117641
11.48136616,3.07843137
11.4855032,3.13725495
11.48960781,3.17647052
11.48960781,3.11764717
11.49368763,3.11764717
11.49775028,3.17647052
11.50196075,3.25490189
11.50592613,3.29411769
11.5100956,3.35294127
11.5100956,3.39215684
11.51419163,3.47058821
11.51823044,3.50980401
11.52235126,3.45098042
11.52235126,3.49019599
11.5264883,3.35294127
11.53061676,3.17647052
11.53474522,2.92156863
11.53474522,2.70588231
11.5387516,2.47058821
11.54286385,2.2352941
11.54698467,1.86274505
11.55104733,1.74509799
11.55516815,1.68627453
11.55516815,1.68627453
11.5592804,1.68627453
11.56341743,1.78431368
11.56747246,1.90196073
11.56747246,1.94117641
11.57151127,2.07843137
11.57555771,2.25490189
11.57969475,2.39215684
11.57969475,2.49019599
11.58385658,2.64705873
11.58792782,2.78431368
11.59196663,2.88235283
11.59614468,2.94117641
11.60024929,2.9607842
11.60024929,2.94117641
11.60425472,2.88235283
11.60835934,2.84313726
11.6124382,2.7647059
11.6124382,2.74509811
11.61662483,2.70588231
11.62072086,2.66666675
11.62469387,2.58823538
11.62469387,2.52941179
11.62898636,2.49019599
11.63292694,2.47058821
11.63709641,2.47058821
11.64103699,2.47058821
11.64526367,2.45098042
11.64526367,2.29411769
11.6493845,2.15686274
11.65349674,1.96078432
11.6576252,1.80392158
11.6576252,1.62745094
11.66157436,1.50980389
11.66575241,1.43137252
11.66987228,1.43137252
11.66987228,1.49019611
11.67399311,1.60784316
11.67798233,1.80392158
11.68209553,2.05882359
11.68209553,2.29411769
11.68623161,2.50980401
11.69032764,2.70588231
11.69032764,2.78431368
11.69429302,2.92156863
11.69846249,2.98039222
11.7025671,2.9607842
11.7025671,2.92156863
11.70668793,2.82352948
11.7108736,2.74509811
11.71501923,2.66666675
11.71501923,2.60784316
11.71899986,2.54901958
11.72312927,2.47058821
11.72724915,2.41176462
11.72724915,2.37254906
11.73124695,2.33333325
11.73535156,2.2352941
11.73535156,2.2352941
11.73950481,2.15686274
11.74364948,2.07843137
11.74774551,2
11.74774551,1.86274505
11.75170231,1.80392158
11.75579071,1.82352936
11.7599926,1.84313726
11.7599926,1.86274505
11.76405621,1.92156863
11.76809502,2.01960778
11.77223969,2.09803915
11.77223969,2.17647052
11.77639294,2.31372547
11.78049755,2.45098042
11.78049755,2.58823538
11.78448677,2.68627453
11.78859901,2.80392146
11.79269505,2.90196085
11.79269505,2.98039222
11.7968483,3.05882359
11.80099392,3.11764717
11.80499172,3.13725495
11.80499172,3.05882359
11.8091116,3.01960778
11.81319141,2.92156863
11.81732845,2.88235283
11.81732845,2.84313726
11.82128525,2.7647059
11.82545471,2.72549009
11.82545471,2.70588231
11.82960033,2.60784316
11.83375359,2.62745094
11.83787441,2.60784316
11.83787441,2.56862736
11.84200287,2.60784316
11.84595966,2.52941179
11.85011292,2.54901958
11.85011292,2.54901958
11.85424995,2.56862736
11.85823917,2.58823538
11.8622942,2.58823538
11.8622942,2.58823538
11.86649704,2.52941179
11.87059307,2.47058821
11.87461567,2.35294127
11.87869453,2.33333325
11.8830452,2.33333325
11.8830452,2.33333325
11.88698483,2.29411769
11.89110565,2.39215684
11.89516068,2.39215684
11.89516068,2.45098042
11.89925671,2.52941179
11.90336132,2.62745094
11.90753078,2.64705873
11.90753078,2.68627453
11.91152859,2.74509811
11.91560841,2.74509811
11.91975307,2.82352948
11.9238739,2.86274505
11.92799473,2.84313726
11.92799473,2.82352948
11.93200874,2.80392146
11.93610477,2.7647059
11.94023323,2.7647059
11.94023323,2.7647059
11.94430447,2.72549009
11.94847393,2.72549009
11.9524231,2.72549009
11.9524231,2.72549009
11.95659256,2.72549009
11.96074581,2.74509811
11.9647522,2.74509811
11.96899509,2.66666675
11.9729929,2.58823538
11.9729929,2.58823538
11.97709751,2.58823538
11.98111916,2.52941179
11.98523998,2.56862736
11.98523998,2.56862736
11.98937702,2.56862736
11.99348927,2.52941179
11.9975605,2.47058821
11.9975605,2.39215684
12.00165653,2.35294127
12.00580978,2.21568632
12.00987339,2.07843137
12.01398563,2.0392158
12.01814747,2.09803915
12.01814747,2.11764717
12.02212048,2.09803915
12.02623272,2.13725495
12.03030396,2.15686274
12.03030396,2.19607854
12.03433514,2.2352941
12.03846359,2.31372547
12.04260826,2.35294127
12.04260826,2.41176462
12.04673767,2.35294127
12.05081749,2.29411769
12.05499458,2.21568632
12.05894375,2.15686274
12.06308079,2.07843137
12.06308079,2.09803915
12.06720924,2.09803915
12.07115746,2.07843137
12.0753355,2.11764717
12.0753355,2.2352941
12.07944012,2.31372547
12.08364201,2.39215684
12.08773804,2.41176462
12.08773804,2.43137264
12.09170341,2.47058821
12.0960207,2.45098042
12.09996891,2.52941179
12.10413074,2.56862736
12.10825157,2.54901958
12.10825157,2.54901958
12.11218357,2.50980401
12.11636925,2.54901958
12.12055588,2.52941179
12.12055588,2.49019599
12.12453651,2.45098042
12.12862492,2.47058821
12.13277817,2.45098042
12.13277817,2.45098042
12.1368742,2.43137264
12.14097786,2.45098042
12.14497566,2.45098042
12.14914513,2.49019599
12.15323353,2.49019599
12.15323353,2.50980401
12.15735435,2.54901958
12.16140079,2.58823538
12.16556263,2.56862736
12.16556263,2.52941179
12.16966629,2.50980401
12.17381191,2.50980401
12.17793274,2.45098042
12.17793274,2.41176462
12.18206882,2.35294127
12.18602562,2.27450991
12.19012165,2.19607854
12.19012165,2.13725495
12.19430828,2.11764717
12.19837093,2.17647052
12.19837093,2.21568632
12.20236111,2.25490189
12.20653915,2.29411769
12.21052837,2.29411769
12.21052837,2.21568632
12.2145834,2.13725495
12.21872044,2.13725495
12.22298813,2.13725495
12.22298813,2.09803915
12.22699451,2.15686274
12.23109055,2.2352941
12.23512077,2.29411769
12.23512077,2.47058821
12.2392416,2.60784316
12.24336147,2.72549009
12.24336147,2.80392146
12.2475071,2.86274505
12.25142288,2.90196085
12.25555992,2.88235283
12.25555992,2.88235283
12.25968838,2.82352948
12.26381683,2.78431368
12.26797009,2.74509811
12.26797009,2.66666675
12.27197647,2.62745094
12.27611351,2.58823538
12.28024197,2.56862736
12.28024197,2.56862736
12.28437138,2.54901958
12.28836823,2.49019599
12.28836823,2.37254906
12.29247284,2.31372547
12.2966013,2.33333325
12.30076313,2.27450991
12.30076313,2.27450991
12.30479336,2.2352941
12.30905342,2.25490189
12.31304264,2.31372547
12.31304264,2.33333325
12.31714725,2.37254906
12.32127571,2.41176462
12.32524872,2.47058821
12.32524872,2.50980401
12.32929611,2.52941179
12.33346558,2.52941179
12.33346558,2.60784316
12.33754539,2.64705873
12.34158421,2.68627453
12.34575367,2.80392146
12.34575367,2.82352948
12.34986591,2.84313726
12.35400295,2.92156863
12.35812378,3.0392158
12.35812378,3.07843137
12.36208057,3.15686274
12.36625862,3.21568632
12.37037086,3.25490189
12.37037086,3.25490189
12.37449932,3.2352941
12.37845612,3.15686274
12.38258457,2.98039222
12.38666439,2.84313726
12.39085102,2.68627453
12.39085102,2.54901958
12.39491367,2.41176462
12.39898491,2.29411769
12.40310574,2.21568632
12.40310574,2.09803915
12.40725136,1.96078432
12.41119957,1.90196073
12.41535282,1.86274505
12.41535282,1.82352936
12.41950607,1.78431368
12.4236269,1.80392158
12.42774773,1.78431368
12.43172836,1.78431368
12.43597984,1.88235295
12.43597984,1.9803921
12.43997765,2.09803915
12.44404984,2.27450991
12.44825172,2.43137264
12.44825172,2.66666675
12.4521513,2.84313726
12.45633698,3.09803915
12.46049118,3.25490189
12.46049118,3.29411769
12.46464443,3.43137264
12.46858406,3.39215684
12.47267246,3.19607854
12.47685051,3.11764717
12.48100376,2.98039222
12.48100376,2.88235283
12.4849844,2.64705873
12.48908901,2.37254906
12.49325085,2.15686274
12.49325085,1.92156863
12.49737072,1.70588231
12.50143433,1.50980389
12.50543213,1.43137252
12.50543213,1.33333337
12.50956059,1.31372547
12.51368999,1.37254906
12.51783466,1.54901958
12.52198792,1.70588231
12.52596951,1.84313726
12.52596951,1.94117641
12.53011417,2.11764717
12.534235,2.15686274
12.53837204,2.33333325
12.53837204,2.41176462
12.54233742,2.50980401
12.54646587,2.58823538
12.55061913,2.64705873
12.55061913,2.74509811
12.55473995,2.80392146
12.55872059,2.92156863
12.56297302,3.01960778
12.56695366,3.01960778
12.57103348,2.98039222
12.57103348,2.98039222
12.57504749,2.9607842
12.57918453,2.92156863
12.58337879,2.88235283
12.58337879,2.82352948
12.58749104,2.72549009
12.59148121,2.62745094
12.59556007,2.52941179
12.59556007,2.47058821
12.59973049,2.39215684
12.60380936,2.39215684
12.6079874,2.37254906
12.61193657,2.35294127
12.61611462,2.45098042
12.61611462,2.52941179
12.62024307,2.58823538
12.6243639,2.62745094
12.62843513,2.66666675
12.62843513,2.74509811
12.63245678,2.72549009
12.63656998,2.74509811
12.64067364,2.72549009
12.64067364,2.72549009
12.64471245,2.68627453
12.64901352,2.64705873
12.65299416,2.70588231
12.65299416,2.74509811
12.65709877,2.82352948
12.66124344,2.86274505
12.66124344,2.94117641
12.66523361,2.88235283
12.66933727,2.82352948
12.67350769,2.72549009
12.67350769,2.70588231
12.67761993,2.70588231
12.68156815,2.72549009
12.68571377,2.62745094
12.68571377,2.50980401
12.68991566,2.45098042
12.69398689,2.27450991
12.69805908,2.09803915
12.69805908,1.94117641
12.70205688,1.90196073
12.70629215,1.90196073
12.70629215,1.88235295
12.7103548,1.90196073
12.71450043,1.92156863
12.71862888,1.96078432
12.71862888,1.9803921
12.72258568,1.9803921
12.72673893,1.9803921
12.73085117,2.01960778
12.73085117,2.0392158
12.73498821,2.09803915
12.73896122,2.17647052
12.74308205,2.25490189
12.74308205,2.33333325
12.74721909,2.37254906
12.75140476,2.35294127
12.75140476,2.45098042
12.75542736,2.49019599
12.75950718,2.49019599
12.76360321,2.52941179
12.76360321,2.54901958
12.76775646,2.50980401
12.77175426,2.47058821
12.77598095,2.39215684
12.77598095,2.37254906
12.77992153,2.37254906
12.78412437,2.33333325
12.78824425,2.31372547
12.78824425,2.29411769
12.79220963,2.29411769
12.79636288,2.29411769
12.79636288,2.31372547
12.80043411,2.33333325
12.80461216,2.39215684
12.80873299,2.35294127
12.80873299,2.37254906
12.81271362,2.37254906
12.81683445,2.43137264
12.82091427,2.45098042
12.82091427,2.45098042
12.82505894,2.52941179
12.82909012,2.58823538
12.83321857,2.54901958
12.83321857,2.60784316
12.83736324,2.64705873
12.84149265,2.66666675
12.84149265,2.60784316
12.84545708,2.56862736
12.84963512,2.56862736
12.85372353,2.50980401
12.85372353,2.47058821
12.85785198,2.45098042
12.8619318,2.47058821
12.86594582,2.49019599
12.86594582,2.43137264
12.87009907,2.47058821
12.87430191,2.47058821
12.87839699,2.49019599
12.87839699,2.45098042
12.88242817,2.50980401
12.88650799,2.54901958
12.89060307,2.50980401
12.89472389,2.54901958
12.89891052,2.60784316
12.89891052,2.64705873
12.90298176,2.64705873
12.90697956,2.62745094
12.91114044,2.68627453
12.91114044,2.66666675
12.91514683,2.66666675
12.9192915,2.64705873
12.92341232,2.62745094
12.92341232,2.64705873
12.92754936,2.60784316
12.93164539,2.56862736
12.93561077,2.62745094
12.93968964,2.62745094
12.94385147,2.58823538
12.94385147,2.56862736
12.94792271,2.52941179
12.95197773,2.39215684
12.95604897,2.33333325
12.95604897,2.31372547
12.96021938,2.27450991
12.96438885,2.29411769
12.96849346,2.27450991
12.96849346,2.25490189
12.97245789,2.2352941
12.97658634,2.25490189
12.98072338,2.19607854
12.984869,2.19607854
12.98898983,2.21568632
12.98898983,2.27450991
12.99303627,2.37254906
12.99717331,2.49019599
13.00127697,2.58823538
13.00127697,2.70588231
13.00529957,2.80392146
13.00940418,2.86274505
13.01349163,2.92156863
13.01349163,3
13.01761246,3.0392158
13.02170849,3.11764717
13.0256567,3.05882359
13.02984333,3.01960778
13.033988,2.90196085
13.033988,2.82352948
13.03811646,2.78431368
13.04209042,2.80392146
13.0462265,2.7647059
13.0462265,2.78431368
13.05037212,2.74509811
13.05448437,2.7647059
13.05861282,2.74509811
13.05861282,2.64705873
13.062603,2.58823538
13.06671524,2.52941179
13.07077789,2.41176462
13.07495594,2.41176462
13.07893753,2.43137264
13.07893753,2.45098042
13.08309078,2.43137264
13.0872364,2.47058821
13.09136486,2.45098042
13.09136486,2.43137264
13.09528923,2.49019599
13.09947491,2.54901958
13.10362053,2.60784316
13.10362053,2.58823538
13.10773277,2.62745094
13.11179543,2.62745094
13.11596584,2.64705873
13.11995506,2.62745094
13.12410831,2.60784316
13.12410831,2.52941179
13.12816334,2.41176462
13.13219357,2.33333325
13.13630581,2.29411769
13.13630581,2.25490189
13.14041901,2.21568632
13.14457989,2.2352941
13.14875793,2.19607854
13.14875793,2.15686274
13.15264893,2.11764717
13.15686035,2.07843137
13.16096401,2.09803915
13.16096401,2.15686274
13.16512585,2.19607854
13.16911507,2.25490189
13.16911507,2.29411769
13.17324352,2.33333325
13.17735672,2.37254906
13.18148518,2.47058821
13.18148518,2.54901958
13.1854744,2.56862736
13.18957901,2.64705873
13.19365025,2.70588231
13.19365025,2.72549009
13.19782829,2.74509811
13.20189953,2.72549009
13.20595455,2.68627453
13.20595455,2.68627453
13.21012402,2.66666675
13.21424484,2.64705873
13.21424484,2.66666675
13.21836567,2.68627453
13.22234631,2.74509811
13.22646713,2.78431368
13.22646713,2.78431368
13.23064518,2.82352948
13.23474121,2.78431368
13.23886204,2.7647059
13.23886204,2.68627453
13.24299049,2.60784316
13.2469635,2.45098042
13.25104332,2.33333325
13.25104332,2.21568632
13.25504875,2.09803915
13.25917816,2
13.25917816,1.94117641
13.26332283,1.88235295
13.26745987,1.82352936
13.2716217,1.78431368
13.2716217,1.86274505
13.27560329,1.88235295
13.27973175,1.96078432
13.28386021,2.07843137
13.28386021,2.15686274
13.28795624,2.19607854
13.29197025,2.25490189
13.2960825,2.29411769
13.2960825,2.37254906
13.30022812,2.41176462
13.30435658,2.43137264
13.30435658,2.43137264
13.30835438,2.39215684
13.3124752,2.41176462
13.31658745,2.35294127
13.31658745,2.39215684
13.32065105,2.37254906
13.32483673,2.31372547
13.32893276,2.25490189
13.32893276,2.21568632
13.33301258,2.13725495
13.3370924,2.09803915
13.34123707,2.07843137
13.34123707,2.09803915
13.34517765,2.07843137
13.3493557,2.07843137
13.35349274,2.13725495
13.35762119,2.21568632
13.36167622,2.21568632
13.36167622,2.37254906
13.36571503,2.50980401
13.36999893,2.58823538
13.37396431,2.66666675
13.37396431,2.82352948
13.37803555,2.92156863
13.38207436,2.98039222
13.38620281,3.0392158
13.38620281,2.98039222
13.39028263,2.98039222
13.3944521,2.92156863
13.39863014,2.78431368
13.40258694,2.68627453
13.40671635,2.56862736
13.40671635,2.49019599
13.41086102,2.37254906
13.41499805,2.29411769
13.41897964,2.25490189
13.41897964,2.19607854
13.42309952,2.13725495
13.42723656,2.13725495
13.4313736,2.09803915
13.4313736,2.09803915
13.4353466,2.13725495
13.43944263,2.11764717
13.44353867,2.27450991
13.4477005,2.25490189
13.45177174,2.33333325
13.45177174,2.43137264
13.45594978,2.52941179
13.4599638,2.58823538
13.46413326,2.64705873
13.46413326,2.70588231
13.46818829,2.72549009
13.47221947,2.7647059
13.47634792,2.7647059
13.47634792,2.88235283
13.48046875,2.98039222
13.48458862,3.09803915
13.48860359,3.25490189
13.49271584,3.31372547
13.49696732,3.35294127
13.49696732,3.31372547
13.50102234,3.31372547
13.50517559,3.2352941
13.50913239,3.07843137
13.50913239,2.98039222
13.51322842,2.88235283
13.51735687,2.78431368
13.52153492,2.72549009
13.52153492,2.66666675
13.52549171,2.54901958
13.52957153,2.50980401
13.53370857,2.37254906
13.53786182,2.35294127
13.54196548,2.31372547
13.54196548,2.27450991
13.54596329,2.2352941
13.5500927,2.21568632
13.55422878,2.13725495
13.55422878,2.09803915
13.55835819,2.05882359
13.5623064,2.01960778
13.56645203,1.96078432
13.56645203,1.90196073
13.57052326,1.94117641
13.57470131,1.96078432
13.57880497,2.15686274
13.58302402,2.2352941
13.58697224,2.27450991
13.58697224,2.33333325
13.59111786,2.45098042
13.59515667,2.49019599
13.5992527,2.54901958
13.5992527,2.60784316
13.60335636,2.62745094
13.60748577,2.60784316
13.61154842,2.54901958
13.61154842,2.49019599
13.61560345,2.49019599
13.61974049,2.49019599
13.62391853,2.43137264
13.62803078,2.43137264
13.63216019,2.37254906
13.63216019,2.27450991
13.63609982,2.25490189
13.64022064,2.19607854
13.6444149,2.13725495
13.6444149,2.09803915
13.64850235,2.0392158
13.65241051,2.01960778
13.65658855,2.05882359
13.65658855,2.07843137
13.66072559,2.09803915
13.66489506,2.13725495
13.66897488,2.15686274
13.66897488,2.15686274
13.67298889,2.13725495
13.67709255,2.15686274
13.67709255,2.25490189
13.6812458,2.41176462
13.68536663,2.54901958
13.68929863,2.68627453
13.68929863,2.80392146
13.69344425,2.9607842
13.69752407,3.09803915
13.70170975,3.19607854
13.70170975,3.27450991
13.70565796,3.27450991
13.7099514,3.27450991
13.71400642,3.2352941
13.71400642,3.11764717
13.71810246,3.0392158
13.72224712,2.86274505
13.72224712,2.72549009
13.72620392,2.56862736
13.73034096,2.43137264
13.73446941,2.27450991
13.73446941,2.13725495
13.73860645,2.09803915
13.74264526,2.01960778
13.74674129,1.94117641
13.74674129,1.90196073
13.75089455,1.88235295
13.75503159,1.80392158
13.75910282,1.78431368
13.75910282,1.80392158
13.76309204,1.88235295
13.76722908,1.92156863
13.76722908,1.96078432
13.7713089,2.17647052
13.77542973,2.33333325
13.77949333,2.52941179
13.77949333,2.68627453
13.7836132,2.88235283
13.78773403,2.92156863
13.79186249,3.0392158
13.79186249,3.11764717
13.7959671,3.15686274
13.79997253,3.2352941
13.80411816,3.33333325
13.80411816,3.39215684
13.80818081,3.43137264
13.81235886,3.47058821
13.81235886,3.49019599
13.81634045,3.47058821
13.82040405,3.41176462
13.82454109,3.33333325
13.82454109,3.19607854
13.82865334,3.01960778
13.83270836,2.84313726
13.83698463,2.64705873
13.83698463,2.49019599
13.84093285,2.39215684
13.84504509,2.31372547
13.84925556,2.15686274
13.84925556,2.09803915
13.85321236,2
13.85735798,1.94117641
13.86151123,1.82352936
13.86554146,1.78431368
13.86964607,1.7647059
13.86964607,1.78431368
13.8737421,1.84313726
13.87789536,1.92156863
13.88203239,1.9803921
13.88203239,2.09803915
13.88599682,2.2352941
13.89003563,2.31372547
13.89422226,2.41176462
13.89422226,2.54901958
13.89830971,2.68627453
13.90247154,2.78431368
13.90646839,2.98039222
13.91060543,3
13.91476727,3.01960778
13.91476727,3.05882359
13.9188633,3.0392158
13.92299175,3.01960778
13.92698193,2.98039222
13.92698193,2.94117641
13.93112659,2.86274505
13.93523884,2.74509811
13.93919563,2.58823538
13.93919563,2.45098042
13.94332504,2.35294127
13.94742107,2.2352941
13.95159054,2.05882359
13.95553875,2.01960778
13.95970821,1.9803921
13.95970821,1.96078432
13.96389484,1.92156863
13.9679985,1.84313726
13.97211933,1.80392158
13.97211933,1.80392158
13.97609234,1.84313726
13.98022938,1.90196073
13.9843502,1.94117641
13.9843502,2.05882359
13.98848724,2.11764717
13.9926157,2.25490189
13.99662209,2.54901958
14.0007019,2.66666675
14.00485516,2.80392146
14.00485516,2.90196085
14.00891018,2.94117641
14.0129652,2.90196085
14.01703644,2.84313726
14.01703644,2.82352948
14.0212059,2.72549009
14.02536774,2.62745094
14.02937317,2.54901958
14.02937317,2.50980401
14.033494,2.50980401
14.03759861,2.45098042
14.04174328,2.27450991
14.04570007,2.19607854
14.04995155,2.07843137
14.04995155,1.96078432
14.05399036,1.86274505
14.05811882,1.94117641
14.06223965,2
14.06223965,2.05882359
14.06622887,2.11764717
14.07029247,2.17647052
14.0744133,2.21568632
14.0744133,2.31372547
14.07860756,2.35294127
14.08254814,2.37254906
14.08671761,2.47058821
14.09082127,2.52941179
14.0949173,2.60784316
14.0949173,2.70588231
14.09901333,2.78431368
14.10307693,2.84313726
14.1072216,2.88235283
14.1072216,2.88235283
14.11135864,2.88235283
14.11548805,2.84313726
14.11946869,2.86274505
14.11946869,2.88235283
14.1235733,2.92156863
14.12767696,2.9607842
14.13182259,2.9607842
14.13591862,3
14.13990784,3
14.13990784,2.92156863
14.14406967,2.86274505
14.14826393,2.78431368
14.15226173,2.70588231
14.15226173,2.62745094
14.15633297,2.49019599
14.16047001,2.37254906
14.16461563,2.21568632
14.16461563,2.05882359
14.1687355,1.92156863
14.1726923,1.82352936
14.17692757,1.72549021
14.17692757,1.80392158
14.18096638,1.86274505
14.185112,1.92156863
14.185112,2
14.18913364,2.13725495
14.19329548,2.27450991
14.19739914,2.41176462
14.19739914,2.50980401
14.20147896,2.66666675
14.20546913,2.78431368
14.20965481,2.80392146
14.20965481,2.84313726
14.21375084,2.88235283
14.21783066,2.9607842
14.22193432,3.01960778
14.22193432,3.0392158
14.22593212,3.09803915
14.23010159,3.15686274
14.23010159,3.15686274
14.23421478,3.09803915
14.23835182,3.13725495
14.24247169,3.13725495
14.24247169,3.01960778
14.24646187,2.92156863
14.25059795,2.84313726
14.25468636,2.72549009
14.25468636,2.62745094
14.25867558,2.50980401
14.26294327,2.37254906
14.26691723,2.2352941
14.26691723,2.09803915
14.27107048,2.01960778
14.27522373,1.9803921
14.27522373,1.88235295
14.27922916,1.90196073
14.2833004,1.92156863
14.28743744,1.90196073
14.28743744,1.88235295
14.29161549,1.92156863
14.29567909,2
14.29972553,2.13725495
14.29972553,2.29411769
14.30397701,2.49019599
14.30797482,2.60784316
14.31213665,2.72549009
14.31213665,2.82352948
14.31614304,2.86274505
14.32027149,2.90196085
14.32027149,2.88235283
14.32437515,2.86274505
14.32847118,2.80392146
14.33265781,2.74509811
14.33265781,2.68627453
14.33660603,2.70588231
14.34065342,2.64705873
14.34486389,2.58823538
14.34486389,2.50980401
14.34894371,2.43137264
14.35295773,2.41176462
14.3570776,2.39215684
14.3570776,2.35294127
14.36123943,2.39215684
14.36538506,2.39215684
14.36935806,2.27450991
14.37347794,2.2352941
14.37757397,2.21568632
14.37757397,2.13725495
14.38166237,2.19607854
14.3856926,2.2352941
14.38991928,2.2352941
14.38991928,2.2352941
14.39394188,2.2352941
14.39813614,2.25490189
14.40221596,2.25490189
14.40221596,2.25490189
14.40620518,2.27450991
14.410326,2.27450991
14.41448784,2.33333325
14.41860771,2.50980401
14.42267132,2.60784316
14.42267132,2.68627453
14.42671013,2.74509811
14.43086338,2.80392146
14.43503284,2.78431368
14.43503284,2.7647059
14.43914509,2.66666675
14.44316769,2.66666675
14.44724751,2.54901958
14.44724751,2.43137264
14.45134354,2.31372547
14.4554882,2.25490189
14.45950222,2.13725495
14.4635334,2.11764717
14.46770287,2.07843137
14.46770287,2.0392158
14.4718647,2.05882359
14.47598457,2
14.47996616,2.0392158
14.47996616,2.05882359
14.48408699,2.11764717
14.48822403,2.13725495
14.49235249,2.11764717
14.49235249,2.09803915
14.49632549,2.11764717
14.50041389,2.09803915
14.50456715,2.11764717
14.50863838,2.15686274
14.51282406,2.33333325
14.51282406,2.35294127
14.51694489,2.49019599
14.52091026,2.56862736
14.52510452,2.74509811
14.52510452,2.7647059
14.52911854,2.84313726
14.53320599,2.90196085
14.53735924,2.9607842
14.53735924,3.05882359
14.54145527,3.09803915
14.54555988,3.13725495
14.54959774,3.15686274
14.55375957,3.11764717
14.55791283,3.13725495
14.55791283,3.05882359
14.56201744,2.98039222
14.56598186,2.88235283
14.57013512,2.74509811
14.57013512,2.60784316
14.57423973,2.50980401
14.57834435,2.43137264
14.58244801,2.29411769
14.58244801,2.17647052
14.58639622,2.09803915
14.59056664,2.0392158
14.5947361,1.9803921
14.59888172,2.0392158
14.60297775,2.13725495
14.60297775,2.19607854
14.60696697,2.21568632
14.61110401,2.25490189
14.61524868,2.29411769
14.61524868,2.43137264
14.61935329,2.49019599
14.6233263,2.60784316
14.62742996,2.70588231
14.62742996,2.7647059
14.63158417,2.84313726
14.6356554,2.9607842
14.63970184,3.17647052
14.64377308,3.27450991
14.64795971,3.33333325
14.64795971,3.31372547
14.65211296,3.25490189
14.65610218,3.19607854
14.66021442,3.13725495
14.66021442,3
14.66431046,2.88235283
14.6684885,2.7647059
14.67260075,2.70588231
14.67260075,2.58823538
14.67659092,2.56862736
14.68066978,2.50980401
14.68484783,2.47058821
14.68484783,2.43137264
14.68888664,2.45098042
14.69293404,2.43137264
14.69293404,2.35294127
14.69702148,2.29411769
14.70119953,2.21568632
14.70527077,2.13725495
14.70527077,2.05882359
14.7093668,2.0392158
14.71350384,2
14.71759129,2.05882359
14.71759129,2.09803915
14.7216959,2.09803915
14.72585773,2.11764717
14.7299614,2.05882359
14.7299614,2.05882359
14.7339592,2.05882359
14.73810387,2.15686274
14.73810387,2.21568632
14.74222469,2.27450991
14.74620628,2.35294127
14.75033474,2.35294127
14.75033474,2.33333325
14.75447178,2.27450991
14.7585268,2.27450991
14.76269627,2.2352941
14.76269627,2.2352941
14.76665306,2.19607854
14.7708559,2.21568632
14.77497673,2.17647052
14.77497673,2.2352941
14.77911377,2.27450991
14.78309441,2.31372547
14.78309441,2.35294127
14.78722382,2.39215684
14.79136086,2.49019599
14.79542351,2.47058821
14.79542351,2.56862736
14.7994709,2.56862736
14.80357456,2.58823538
14.80768681,2.60784316
14.80768681,2.54901958
14.8118,2.54901958
14.81593609,2.56862736
14.81990147,2.58823538
14.81990147,2.56862736
14.82405472,2.56862736
14.82816696,2.56862736
14.82816696,2.52941179
14.83233643,2.54901958
14.8363266,2.58823538
14.84046364,2.58823538
14.84046364,2.66666675
14.84458351,2.68627453
14.84875393,2.60784316
14.85283375,2.52941179
14.85283375,2.43137264
14.856987,2.35294127
14.86098385,2.25490189
14.86505604,2.25490189
14.86505604,2.2352941
14.86920071,2.27450991
14.87319851,2.33333325
14.87728596,2.56862736
14.88144779,2.66666675
14.88551903,2.72549009
14.88551903,2.78431368
14.88957405,2.84313726
14.89364624,2.78431368
14.89796257,2.7647059
14.89796257,2.70588231
14.90192795,2.68627453
14.90597439,2.62745094
14.91009521,2.58823538
14.91009521,2.54901958
14.91424847,2.52941179
14.91833687,2.52941179
14.92247391,2.60784316
14.92647076,2.58823538
14.93056679,2.58823538
14.93056679,2.56862736
14.93472862,2.50980401
14.93875122,2.50980401
14.94292068,2.45098042
14.94292068,2.35294127
14.9469347,2.25490189
14.95102215,2.21568632
14.95518398,2.17647052
14.95518398,2.21568632
14.95934582,2.29411769
14.96331882,2.35294127
14.96747208,2.54901958
14.97158432,2.52941179
14.97572136,2.52941179
14.97572136,2.54901958
14.97971058,2.52941179
14.98397064,2.49019599
14.98793602,2.49019599
14.98793602,2.50980401
14.9920969,2.50980401
14.99607849,2.54901958
15.00026512,2.68627453
15.00026512,2.74509811
15.00440121,2.72549009
15.0085144,2.82352948
15.01260185,2.78431368
15.01659107,2.80392146
15.0207777,2.78431368
15.0207777,2.72549009
15.02485752,2.64705873
15.02896118,2.60784316
15.03307343,2.58823538
15.03307343,2.52941179
15.03709602,2.49019599
15.04122448,2.43137264
15.04531288,2.39215684
15.04531288,2.29411769
15.0493679,2.2352941
15.05345535,2.13725495
15.05760098,2.13725495
15.06166363,2.19607854
15.06579208,2.19607854
15.06579208,2.2352941
15.06993771,2.27450991
15.0738945,2.29411769
15.07807255,2.39215684
15.07807255,2.45098042
15.082201,2.58823538
15.08619881,2.68627453
15.09033585,2.7647059
15.09033585,2.92156863
15.09447289,2.98039222
15.09862614,3
15.10266495,3
15.10671139,2.94117641
15.11091423,2.86274505
15.11091423,2.84313726
15.11497688,2.84313726
15.11909771,2.86274505
15.12328434,2.92156863
15.12328434,2.90196085
15.12726498,2.88235283
15.13140202,2.82352948
15.13547325,2.7647059
15.13547325,2.64705873
15.13946342,2.56862736
15.14363289,2.49019599
15.14775372,2.29411769
15.15176773,2.2352941
15.15593719,2.11764717
15.15593719,2.0392158
15.15995121,2
15.16410446,1.94117641
15.16822529,1.88235295
15.16822529,1.88235295
15.17235374,1.96078432
15.17632675,2
15.18044758,2.09803915
15.18044758,2.19607854
15.18453598,2.27450991
15.18866444,2.27450991
15.19282627,2.33333325
15.19282627,2.41176462
15.19689751,2.49019599
15.20095253,2.58823538
15.20095253,2.68627453
15.20501518,2.72549009
15.2091856,2.72549009
15.21321583,2.72549009
15.21321583,2.66666675
15.21735287,2.64705873
15.22148132,2.62745094
15.22557735,2.58823538
15.22557735,2.60784316
15.22957516,2.62745094
15.23370361,2.68627453
15.23797226,2.74509811
15.23797226,2.80392146
15.24203491,2.80392146
15.24615574,2.84313726
15.24615574,2.82352948
15.25013733,2.64705873
15.2542572,2.58823538
15.25839424,2.49019599
15.25839424,2.39215684
15.26247406,2.31372547
15.26646328,2.2352941
15.2705431,2.15686274
15.2705431,2.09803915
15.27465534,2.11764717
15.27883339,2.11764717
15.28297901,2.07843137
15.28297901,2.13725495
15.28695202,2.11764717
15.29108906,2.07843137
15.29108906,2.0392158
15.29516029,2.07843137
15.29932976,2.13725495
15.30331135,2.2352941
15.30331135,2.33333325
15.30744839,2.39215684
15.31155205,2.49019599
15.31568909,2.54901958
15.31568909,2.62745094
15.31962204,2.66666675
15.32393837,2.7647059
15.32788754,2.74509811
15.32788754,2.78431368
15.33208179,2.80392146
15.33622646,2.74509811
15.33622646,2.72549009
15.34016705,2.66666675
15.34432888,2.66666675
15.34849072,2.60784316
15.34849072,2.62745094
15.35257816,2.60784316
15.3565836,2.62745094
15.36071301,2.66666675
15.36071301,2.64705873
15.36491489,2.56862736
15.36901951,2.52941179
15.37315655,2.47058821
15.37315655,2.37254906
15.37713814,2.31372547
15.38129139,2.21568632
15.38534641,2.2352941
15.38940907,2.19607854
15.39344788,2.15686274
15.39344788,2.17647052
15.39754391,2.21568632
15.40170574,2.21568632
15.40582561,2.25490189
15.40582561,2.29411769
15.40998745,2.29411769
15.41397667,2.37254906
15.4180975,2.39215684
15.4180975,2.45098042
15.42222691,2.41176462
15.42634678,2.47058821
15.43032837,2.37254906
15.43446541,2.31372547
15.43856144,2.29411769
15.43856144,2.25490189
15.44269848,2.25490189
15.44664669,2.2352941
15.45094776,2.25490189
15.45094776,2.2352941
15.45489597,2.27450991
15.45909023,2.29411769
15.46321964,2.31372547
15.46321964,2.27450991
15.46720028,2.21568632
15.47135353,2.17647052
15.47547436,2.11764717
15.47945595,2.11764717
15.48359299,2.11764717
15.48359299,2.13725495
15.48771286,2.17647052
15.49180889,2.17647052
15.4959631,2.15686274
15.4959631,2.15686274
15.49995232,2.19607854
15.50403214,2.25490189
15.50818539,2.27450991
15.50818539,2.33333325
15.51227283,2.43137264
15.51645088,2.50980401
15.52042389,2.74509811
15.52458572,2.7647059
15.52869797,2.80392146
15.52869797,2.72549009
15.53285122,2.62745094
15.53697205,2.62745094
15.54092026,2.60784316
15.54092026,2.58823538
15.54502487,2.58823538
15.54923534,2.58823538
15.55334759,2.64705873
15.55334759,2.60784316
15.55734539,2.62745094
15.56148243,2.70588231
15.56556988,2.72549009
15.56951904,2.78431368
15.57367992,2.78431368
15.57367992,2.80392146
15.57777596,2.7647059
15.58196259,2.70588231
15.58609962,2.70588231
15.58609962,2.62745094
15.59007263,2.54901958
15.59420967,2.45098042
15.59837055,2.39215684
15.59837055,2.33333325
15.60245895,2.31372547
15.60660362,2.25490189
15.61057663,2.25490189
15.61473846,2.27450991
15.61884308,2.35294127
15.61884308,2.43137264
15.62297153,2.54901958
15.62694454,2.64705873
15.63108158,2.66666675
15.63108158,2.74509811
15.63514423,2.84313726
15.63932228,2.90196085
15.64339447,2.90196085
15.64339447,2.94117641
15.64745712,2.98039222
15.65158558,2.98039222
15.65567398,2.98039222
15.65971279,2.98039222
15.66395569,2.90196085
15.66395569,2.84313726
15.66795349,2.74509811
15.67209911,2.56862736
15.67622757,2.37254906
15.67622757,2.27450991
15.68019295,2.13725495
15.6843462,2.01960778
15.68840885,1.90196073
15.68840885,1.78431368
15.69255447,1.80392158
15.6965847,1.82352936
15.70066452,1.88235295
15.70066452,1.9803921
15.70480156,2.19607854
15.70897102,2.35294127
15.70897102,2.50980401
15.71310806,2.64705873
15.71706486,2.80392146
15.72119331,2.84313726
15.72119331,2.90196085
15.72533894,2.94117641
15.7294426,2.90196085
15.73345661,2.82352948
15.73345661,2.7647059
15.73758602,2.72549009
15.74172306,2.64705873
15.7457943,2.58823538
15.7457943,2.49019599
15.75000477,2.47058821
15.75399399,2.45098042
15.75399399,2.39215684
15.75813961,2.37254906
15.76221943,2.35294127
15.7663393,2.35294127
15.7663393,2.35294127
15.77039433,2.37254906
15.77446651,2.39215684
15.77857876,2.50980401
15.77857876,2.56862736
15.782691,2.62745094
15.78670502,2.72549009
15.79096508,2.64705873
15.79096508,2.64705873
15.79491329,2.66666675
15.79911613,2.66666675
15.79911613,2.66666675
15.803195,2.74509811
15.80716896,2.80392146
15.81130505,2.74509811
15.81130505,2.78431368
15.81540966,2.74509811
15.81955528,2.72549009
15.82355213,2.72549009
15.82355213,2.68627453
15.82764816,2.64705873
15.83182621,2.60784316
15.83596325,2.50980401
15.83596325,2.41176462
15.83996105,2.33333325
15.84408188,2.25490189
15.84408188,2.21568632
15.84824276,2.15686274
15.85234737,2.19607854
15.85647583,2.19607854
15.85647583,2.29411769
15.86044884,2.29411769
15.86464405,2.37254906
15.8686657,2.39215684
15.8686657,2.41176462
15.87288475,2.39215684
15.87700558,2.39215684
15.88102722,2.39215684
15.88102722,2.37254906
15.88509941,2.33333325
15.88921165,2.25490189
15.89325047,2.19607854
15.89737892,2.17647052
15.90139294,2.17647052
15.90139294,2.05882359
15.9055624,2.01960778
15.90972424,1.9803921
15.91372204,1.90196073
15.91372204,1.86274505
15.91794872,1.90196073
15.9219389,2
15.92609978,2.17647052
15.92609978,2.27450991
15.93007278,2.33333325
15.93419361,2.43137264
15.93829823,2.49019599
15.94244289,2.52941179
15.94651413,2.58823538
15.94651413,2.56862736
15.95056915,2.60784316
15.95464134,2.62745094
15.95881081,2.68627453
15.95881081,2.66666675
15.96298885,2.64705873
15.96693707,2.64705873
15.9710741,2.60784316
15.9710741,2.52941179
15.97522736,2.47058821
15.9793148,2.45098042
15.98330498,2.29411769
15.98745823,2.21568632
15.99157906,2.15686274
15.99157906,2.0392158
15.99571514,1.9803921
15.99970531,2.01960778
16.00393295,2.0392158
16.00393295,2.15686274
16.00785637,2.19607854
16.01209068,2.33333325
16.01616287,2.45098042
16.01616287,2.50980401
16.0201683,2.56862736
16.02431297,2.60784316
16.02839279,2.58823538
16.03261185,2.56862736
16.03668404,2.56862736
16.03668404,2.58823538
16.04068947,2.60784316
16.04486847,2.60784316
16.04895592,2.60784316
16.04895592,2.62745094
16.05315018,2.62745094
16.05712318,2.58823538
16.06121826,2.60784316
16.06121826,2.64705873
16.0653553,2.68627453
16.06950188,2.62745094
16.07348251,2.60784316
16.07758713,2.66666675
16.08171463,2.64705873
16.08171463,2.64705873
16.08576202,2.70588231
16.08993149,2.74509811
16.09394646,2.7647059
16.09394646,2.78431368
16.09809113,2.82352948
16.10222816,2.82352948
16.10632324,2.82352948
16.10632324,2.7647059
16.11033058,2.74509811
16.11445045,2.72549009
16.11859512,2.68627453
16.12267494,2.70588231
16.12683678,2.72549009
16.12683678,2.72549009
16.13094139,2.68627453
16.1348896,2.7647059
16.1390667,2.72549009
16.1390667,2.68627453
16.14315605,2.64705873
16.14721107,2.62745094
16.15132332,2.54901958
16.15132332,2.50980401
16.15537834,2.47058821
16.1595974,2.49019599
16.1637001,2.50980401
16.1637001,2.50980401
16.16770744,2.54901958
16.17196655,2.56862736
16.17196655,2.52941179
16.17596436,2.54901958
16.18008423,2.50980401
16.18405724,2.47058821
16.18405724,2.37254906
16.18815422,2.27450991
16.19229889,2.21568632
16.19641876,2.15686274
16.19641876,2.21568632
16.20039177,2.2352941
16.20454597,2.2352941
16.20870018,2.25490189
16.20870018,2.19607854
16.21282005,2.13725495
16.21700668,2.01960778
16.21700668,2.01960778
16.22096252,2.05882359
16.22509193,2.09803915
16.22917938,2.17647052
16.22917938,2.25490189
16.23323441,2.35294127
16.23732185,2.49019599
16.24144363,2.58823538
16.24144363,2.70588231
16.24559593,2.80392146
16.2496357,2.80392146
16.25368118,2.86274505
16.25368118,2.90196085
16.25788498,2.84313726
16.26194763,2.7647059
16.26194763,2.72549009
16.26605988,2.60784316
16.27004051,2.52941179
16.27420235,2.41176462
16.27420235,2.33333325
16.27828979,2.33333325
16.28247643,2.2352941
16.28658867,2.25490189
16.28658867,2.2352941
16.29056931,2.17647052
16.29471588,2.11764717
16.29878616,2.17647052
16.29878616,2.17647052
16.30296516,2.21568632
16.30709267,2.27450991
16.30709267,2.35294127
16.31102562,2.39215684
16.31516266,2.41176462
16.3192997,2.47058821
16.3192997,2.43137264
16.32332993,2.43137264
16.32749176,2.39215684
16.33163643,2.29411769
16.33163643,2.2352941
16.33571625,2.2352941
16.33982849,2.25490189
16.34399033,2.31372547
16.34399033,2.39215684
16.34803772,2.47058821
16.3521328,2.62745094
16.3521328,2.70588231
16.35624504,2.82352948
16.36021805,2.92156863
16.36438751,2.92156863
16.36438751,2.90196085
16.36850166,2.80392146
16.37261391,2.70588231
16.37673378,2.60784316
16.37673378,2.50980401
16.38074684,2.37254906
16.38489342,2.35294127
16.38897324,2.31372547
16.38897324,2.27450991
16.39307594,2.29411769
16.3971405,2.31372547
16.40120316,2.47058821
16.40533257,2.50980401
16.40945244,2.50980401
16.40945244,2.56862736
16.41348267,2.64705873
16.41757011,2.62745094
16.42169952,2.62745094
16.42169952,2.60784316
16.4258194,2.58823538
16.42994118,2.43137264
16.43395424,2.29411769
16.43395424,2.2352941
16.43803406,2.13725495
16.44216347,2.13725495
16.44625092,2.2352941
16.45030594,2.31372547
16.45437813,2.49019599
16.45437813,2.64705873
16.45858002,2.84313726
16.46272469,2.98039222
16.46683693,3.19607854
16.46683693,3.27450991
16.47094154,3.29411769
16.47493935,3.25490189
16.47904396,3.17647052
16.47904396,3.11764717
16.48322105,3.01960778
16.4872036,2.82352948
16.4913063,2.60784316
16.49546051,2.54901958
16.49958992,2.54901958
16.49958992,2.49019599
16.50362778,2.49019599
16.50777245,2.47058821
16.51196671,2.47058821
16.51196671,2.45098042
16.51594925,2.43137264
16.52014351,2.37254906
16.52407455,2.33333325
16.52407455,2.25490189
16.52820396,2.13725495
16.53231621,2.05882359
16.53643608,1.92156863
16.54045105,1.90196073
16.54456329,1.90196073
16.54456329,1.94117641
16.54872513,1.9803921
16.55276299,2.05882359
16.55693245,2.17647052
16.55693245,2.29411769
16.56093979,2.43137264
16.56503487,2.54901958
16.56917191,2.62745094
16.56917191,2.70588231
16.57325172,2.80392146
16.57730675,2.82352948
16.58145905,3.01960778
16.58552361,3.07843137
16.58971024,3
16.58971024,2.98039222
16.5936985,2.88235283
16.59799194,2.90196085
16.60196495,2.86274505
16.60196495,2.80392146
16.60609245,2.80392146
16.61009979,2.84313726
16.61415482,2.86274505
16.61415482,2.84313726
16.61834908,2.78431368
16.6225338,2.74509811
16.62662315,2.37254906
16.63063622,2.17647052
16.6347332,1.94117641
16.6347332,1.74509799
16.63882828,1.62745094
16.64305496,1.54901958
16.64711952,1.52941179
16.64711952,1.52941179
16.65101814,1.58823526
16.65517998,1.66666663
16.65934944,1.82352936
16.65934944,1.96078432
16.66347885,2.13725495
16.66745949,2.2352941
16.67160416,2.54901958
16.67572594,2.68627453
16.67982864,2.78431368
16.67982864,2.94117641
16.68396568,3.07843137
16.68793106,3.11764717
16.69207573,3.11764717
16.69207573,3.11764717
16.69614792,3.17647052
16.70030212,3.11764717
16.70428276,3.17647052
16.70428276,3.13725495
16.7084198,3.09803915
16.71259689,3.05882359
16.71670914,2.9607842
16.71670914,2.90196085
16.72069168,2.80392146
16.72496796,2.74509811
16.72496796,2.64705873
16.728899,2.54901958
16.73308563,2.43137264
16.73719025,2.27450991
16.73719025,2.15686274
16.7412529,2.05882359
16.74538231,1.90196073
16.74952698,1.7647059
16.74952698,1.68627453
16.75346756,1.68627453
16.75764465,1.62745094
16.76171684,1.68627453
16.76171684,1.7647059
16.76582909,1.86274505
16.76990128,1.96078432
16.76990128,2.13725495
16.77388191,2.31372547
16.77805138,2.52941179
16.78218842,2.66666675
16.78218842,2.82352948
16.78631783,2.94117641
16.79045486,2.98039222
16.79445267,2.98039222
16.79445267,2.98039222
16.79860497,2.98039222
16.80265999,3
16.80683899,3.0392158
16.80683899,2.92156863
16.81092644,2.88235283
16.81490707,2.84313726
16.81490707,2.70588231
16.81903648,2.56862736
16.82317352,2.54901958
16.82726097,2.54901958
16.82726097,2.52941179
16.83131599,2.58823538
16.8354702,2.60784316
16.8395977,2.58823538
16.8395977,2.58823538
16.84371948,2.49019599
16.84767532,2.29411769
16.85196877,2.15686274
16.85196877,1.9803921
16.85594177,1.84313726
16.86008644,1.82352936
16.8641243,1.82352936
16.86827087,1.86274505
16.87238312,1.96078432
16.87238312,2.09803915
16.87649536,2.25490189
16.88052559,2.41176462
16.88458824,2.54901958
16.88458824,2.60784316
16.88870049,2.72549009
16.89284515,2.72549009
16.89690971,2.66666675
16.89690971,2.66666675
16.90093994,2.58823538
16.90506935,2.52941179
16.90921402,2.29411769
16.91333389,2.25490189
16.91744614,2.21568632
16.91744614,2.21568632
16.92143631,2.25490189
16.92558861,2.35294127
16.92969322,2.41176462
16.92969322,2.47058821
16.93369102,2.54901958
16.93790245,2.52941179
16.94194031,2.52941179
16.94194031,2.49019599
16.9460125,2.47058821
16.95018959,2.37254906
16.95413017,2.27450991
16.95830917,2.29411769
16.96247864,2.41176462
16.96247864,2.50980401
16.96659851,2.60784316
16.97056389,2.64705873
16.97468376,2.68627453
16.97468376,2.66666675
16.97879601,2.60784316
16.98296547,2.49019599
16.98708725,2.45098042
16.98708725,2.43137264
16.99103546,2.41176462
16.99518967,2.47058821
16.99933434,2.62745094
17.00343895,2.68627453
17.00750923,2.70588231
17.00750923,2.68627453
17.01153946,2.66666675
17.01566887,2.58823538
17.01980591,2.56862736
17.01980591,2.60784316
17.02395821,2.62745094
17.02796555,2.60784316
17.03211784,2.60784316
17.03211784,2.60784316
17.03623009,2.56862736
17.0403347,2.54901958
17.0443325,2.49019599
17.04846954,2.41176462
17.05258942,2.43137264
17.05258942,2.39215684
17.05674362,2.35294127
17.0606842,2.37254906
17.06491852,2.41176462
17.06491852,2.45098042
17.06894112,2.45098042
17.07302094,2.47058821
17.07718277,2.45098042
17.07718277,2.47058821
17.08115578,2.45098042
17.08531761,2.45098042
17.08944511,2.45098042
17.0935421,2.45098042
17.09757996,2.43137264
17.09757996,2.50980401
17.10170937,2.54901958
17.10582161,2.60784316
17.10996628,2.62745094
17.10996628,2.74509811
17.1138916,2.84313726
